timestamp,ch1,ch2,ch3,ch4,ch5,ch6,ch7,ch8
66,0,0,0,0,0,0,0,0
66,-1217416,484185,478689,-3008375,-403498,641726,730579,-188296
66,-1144824,454925,446461,-2832319,-381079,607820,687937,-177772
66,-1078612,428066,420395,-2664744,-358409,570790,647117,-167006
66,-1012110,403281,386300,-2507984,-341564,539044,609222,-158273
66,-954405,379550,365775,-2359169,-320631,506020,573050,-148500
66,-899068,357488,347068,-2218707,-301490,472891,538785,-139184
66,-845521,335862,329746,-2088391,-279783,447399,506975,-130826
66,-793961,316396,310728,-1964676,-263631,419389,476852,-123077
66,-747660,296998,292311,-1848471,-248194,394704,448630,-115765
114,-703385,282896,277216,-1736750,-235811,357074,420649,-107999
114,-663077,265544,261388,-1634669,-220983,338444,396054,-101646
114,-621997,247187,242556,-1540814,-205215,333825,374428,-97455
114,-586296,232844,226927,-1449625,-193320,313469,352251,-91937
114,-554222,217634,217170,-1364279,-180608,296182,331398,-85642
114,-520809,205127,204374,-1283411,-171101,277417,311798,-80786
114,-489752,192425,189738,-1208769,-162936,263331,293431,-76545
114,-459141,181423,178469,-1136933,-153094,246749,275981,-72001
114,-433095,171353,168319,-1068793,-143961,229491,259507,-67760
114,-407352,161421,158678,-1005776,-135030,216527,244327,-64166
162,-383084,155015,151357,-943307,-128415,190432,228808,-60343
162,-359286,145525,142332,-888294,-120614,180231,215218,-56874
162,-337627,137137,135076,-834024,-112271,166884,202023,-52994
162,-318816,128923,126895,-784586,-105738,157595,190048,-50128
162,-300532,117028,123314,-743144,-100291,164610,180763,-47675
162,-283926,110312,117018,-699001,-94245,153560,169985,-44800
162,-265556,104682,102216,-657444,-86588,146017,160141,-42036
162,-250823,98766,94694,-619024,-84017,137737,150824,-40235
162,-235426,93743,87634,-582308,-82026,127243,141970,-38772
162,-223479,84081,87124,-548393,-72258,123746,133389,-35087
211,-208729,81523,81079,-515811,-65091,113865,125338,-33178
211,-196235,77185,73915,-484864,-63423,106163,117936,-31000
211,-182014,73098,72146,-456089,-60152,100051,111115,-30004
211,-171521,68788,68108,-429018,-56980,93466,104586,-27962
211,-161944,67341,64943,-401270,-55745,74839,97013,-25356
211,-152205,63602,61121,-377179,-52667,69371,91173,-23938
211,-143344,55680,56267,-358095,-45909,81281,87531,-24246
211,-135852,52539,52374,-336849,-43505,76084,82350,-22803
211,-126892,50204,49467,-316107,-41690,68121,77135,-21063
211,-120370,46782,45713,-298659,-39294,68962,72962,-19611
260,-114801,48307,46100,-276213,-39618,43870,66739,-17665
260,-108224,45771,44010,-259832,-36868,39227,62487,-16269
260,-100112,37289,39774,-249858,-28208,64594,61526,-17070
260,-94025,35728,35637,-234597,-30262,58365,57671,-16304
260,-88354,34021,33966,-219624,-27871,51010,53584,-14274
260,-83882,32168,32501,-206478,-26509,47123,50270,-13398
260,-77832,33658,32443,-191761,-25016,30664,46169,-12312
260,-71947,31677,30473,-180481,-22553,29884,43574,-11673
260,-67448,30193,28593,-169523,-21123,27461,40924,-10790
260,-65151,24792,25271,-162590,-20468,39010,39764,-10743
309,-61241,25873,26326,-151762,-22698,26050,36497,-9770
309,-57517,21543,23387,-145425,-18919,36127,35318,-9520
309,-55537,20495,20933,-135510,-16298,33839,33347,-9172
309,-51897,19627,20135,-127014,-15390,30105,31219,-8487
309,-48339,16757,16704,-121332,-14928,35694,29867,-7047
309,-45175,15907,15621,-113952,-14590,32625,28105,-7065
309,-42224,15624,14777,-106433,-14490,28043,26331,-7089
309,-41761,14933,14967,-100099,-13373,24567,24593,-6292
309,-39192,14318,14115,-93888,-12706,22412,23012,-5926
309,-36428,16491,11322,-86966,-21530,9730,20671,-5995
358,-34382,14956,14305,-80772,-11247,10674,19699,-5364
358,-30618,11413,12205,-78685,-9626,20133,19340,-5718
358,-30016,11027,10363,-74149,-10230,19524,18266,-4723
358,-27138,10795,10021,-69684,-9835,16797,17160,-4522
358,-26662,9652,10040,-65634,-7695,17010,16118,-3626
358,-25208,9279,9464,-61782,-7697,15349,15029,-3339
358,-23768,9704,9310,-57520,-7832,10952,13970,-3008
358,-22033,5665,8563,-55279,-5463,19138,13978,-3066
358,-21065,5872,7855,-51553,-5584,16942,13125,-2693
358,-19209,7124,6238,-48571,-6439,12541,12004,-3506
407,-19039,12402,8473,-41002,-9110,-10749,8902,-1734
407,-18169,10775,7963,-39694,-7918,-6086,8558,-1490
407,-17548,5480,6252,-41485,-6283,11457,9866,-2072
407,-14975,2484,4239,-41460,-4137,22946,10402,-2529
407,-12953,5388,997,-36448,-5869,12770,9348,-3439
407,-12165,5109,529,-34287,-5448,11774,8678,-2517
407,-13150,4850,1209,-32077,-5105,10101,7881,-1642
407,-11665,4332,6119,-29983,-1368,9344,7824,-3108
407,-9734,4789,6252,-27361,-2089,5464,7102,-3030
407,-11292,3362,3983,-27409,-3279,10640,6866,-2164
456,-8375,3696,3781,-25739,-2698,10769,6578,-1978
456,-7952,3380,3554,-23514,-2413,9878,6223,-1828
456,-9626,2881,4203,-21634,-1669,5031,5263,-2833
456,-9172,2825,3897,-20477,-1512,4621,4977,-2943
456,-7286,3141,3928,-19086,-1739,2761,4606,-2360
456,-7447,5516,5322,-17332,-3891,-5602,3017,-785
456,-6524,241,2215,-20450,-536,15853,4731,-1064
456,-7422,1665,1724,-16604,-630,6235,3907,-582
456,-7169,2121,1029,-15175,-614,4113,3730,-908
456,-4002,2043,1145,-14575,-3906,4786,3866,-2641
504,-2583,5072,4580,-10700,-3900,-11263,2162,-3497
504,-3750,5011,4317,-10116,-3955,-10910,1985,-2702
504,-4907,-447,649,-13049,-1359,9949,3703,-1472
504,-4289,-213,493,-12136,-1389,8780,3456,-1385
504,-4356,1863,2207,-10661,-298,3683,2520,-541
504,-4412,1886,1501,-9960,-250,3273,2323,-450
504,-4425,1951,680,-9323,-769,1955,2134,-449
504,-3424,-346,-172,-11016,2789,9998,3102,-1767
504,-4525,-123,-1075,-9885,1655,8252,2777,-1555
504,-3774,759,1785,-7998,-278,3158,2211,-1133
552,-3024,2504,2486,-5513,-1291,-4144,1360,-43
552,-3418,4512,3287,-3710,-2625,-12855,477,140
552,-2430,4509,607,-3938,-3666,-11458,377,166
552,-3251,4566,1122,-3358,-3417,-11754,214,-118
552,-1891,-1241,1386,-7533,1566,10056,2447,-1586
552,-1733,-1017,1598,-6971,1677,8636,2368,-2160
552,-2117,-181,2076,-5919,1391,5423,2031,-1849
552,141,531,988,-5667,-697,3461,1843,-2296
552,-589,820,1328,-5111,-299,1844,1766,-2146
552,-3095,-1670,-203,-7174,-365,12008,1846,-755
601,-1056,687,2196,-3822,128,141,659,-637
601,-949,-763,1089,-4554,646,6215,1198,-804
601,-2724,362,-163,-4546,-1324,3812,980,-836
601,-1006,381,136,-3991,-1475,2606,698,-579
601,-3511,3513,2247,393,-2310,-12928,-660,684
601,-3305,3073,1024,-96,-2468,-12116,-616,916
601,-3183,3017,1134,182,-2867,-13807,-824,1067
601,-2208,-1260,-262,-4224,655,8631,1518,-1854
601,-2057,-1037,20,-3420,424,7083,1354,-1868
601,-49,-682,990,-2756,390,2267,833,-885
649,-220,3686,2947,836,-1854,-13016,-541,64
649,-877,4557,3564,1593,-2255,-17609,-1206,369
649,559,-2925,-1286,-4913,1345,15946,1616,-1166
649,151,-2224,-965,-3941,1225,12904,1341,-1009
649,60,-1170,-149,-2725,226,4846,868,-1093
649,144,-768,-36,-2195,10,3449,728,-990
649,-1440,3464,2697,1128,-2568,-15126,-1205,-201
649,-58,2658,2014,-197,-2369,-11486,-808,-198
649,-787,-1453,103,-2594,1423,6905,1301,-1093
649,-918,-1444,343,-2147,1158,6506,1142,-518
698,-2807,2431,-647,1578,-3248,-8480,-462,182
698,245,-590,-602,-2458,191,4577,689,1267
698,-77,-317,-511,-2132,446,4052,646,1177
698,-320,181,145,-1330,473,1505,448,1090
698,-3631,-2816,-1026,-3786,1389,13024,1705,-586
698,-1928,-2128,-693,-2701,1290,9840,1492,-617
698,762,-371,167,-1915,2019,3819,769,-606
698,-1282,-289,135,-1875,1995,3586,802,116
698,-1800,3407,2763,2213,-1465,-15542,-979,528
698,-332,2628,2445,1626,-1403,-12770,-951,849
755,-2535,2565,2849,2489,-1401,-14427,-1253,1212
755,-1449,-1674,-548,-2432,653,7427,1052,-654
755,-431,-1721,-367,-2008,717,6581,950,-676
755,-2548,-522,-126,-1450,1843,2411,561,86
755,-1168,-396,-129,-1338,1510,2335,581,-88
755,-2107,43,86,-917,1264,1051,580,-128
755,-810,5066,3565,3693,-3695,-21839,-1817,1392
755,-1390,194,849,-1306,-1290,-1468,-320,1530
755,-1608,-879,-924,-2524,38,6528,985,780
755,-997,-817,-653,-1907,61,5186,472,1049
803,-2090,3827,2623,2881,-2531,-16987,-1217,-940
803,-2533,3050,2256,1956,-2213,-13948,-1263,-76
803,-2438,2134,1739,1098,-1650,-9858,-1080,513
803,-741,-1814,-1328,-2461,662,10954,1276,674
803,-718,-1608,-1245,-1419,820,9205,1090,843
803,424,-1470,24,-1999,981,4819,373,-473
803,-801,-1172,223,-1834,1058,4159,279,-65
803,538,-223,726,-821,817,956,37,204
803,725,-2505,-1357,-2409,1166,11693,1217,-133
803,-601,-1798,-956,-1501,659,8429,862,174
852,1419,1802,1569,1353,-1495,-7912,-502,-622
852,-1271,-961,-297,-1690,-182,5120,630,-350
852,-2289,-366,114,-540,-348,2240,355,613
852,-723,2598,2017,1963,-1657,-10390,-918,290
852,-670,2681,2029,1720,-1924,-10589,-799,59
852,-537,-1799,-1002,-2260,579,10200,1400,-828
852,-95,-1552,-1086,-2185,413,9744,1378,-668
852,1256,-803,-634,-1341,147,6336,1064,-187
852,-1059,-1747,316,-134,702,2666,282,1388
852,-348,-1430,510,241,671,1346,105,1817
901,-1444,-234,-119,-1509,-322,3271,155,135
901,-1451,-979,-449,-1816,239,6301,651,-74
901,-86,2260,1655,2214,-1109,-8963,-576,827
901,1258,-156,-592,-1262,500,5338,563,118
901,-454,-682,-390,-1199,344,4987,452,386
901,-3359,2584,2189,2858,-874,-11850,-1369,2944
901,-3598,2211,2100,2772,-861,-11090,-1453,2748
901,-3089,2097,2115,2660,-1085,-11176,-1633,2459
901,-1450,-1960,-1200,-2533,336,10139,922,137
901,-3030,-2039,-1015,-2175,400,9208,656,1265
949,321,3764,1960,3108,-1833,-14061,-1275,1570
949,702,4194,2213,3105,-2092,-15622,-1556,1914
949,-256,3581,1974,2377,-1828,-13032,-1467,2208
949,1151,-3231,-1711,-2799,1871,15618,1266,-1123
949,-36,-2779,-1463,-2648,1385,13367,1150,-981
949,100,-1185,-905,-1643,890,6909,1042,-1680
949,-279,-1156,-866,-1335,1006,6688,902,-1369
949,-552,-944,-572,-789,882,5181,557,-701
949,2499,3021,1660,1628,-1809,-10642,-1125,-1054
949,2159,2849,1564,1486,-1885,-9767,-977,-144
997,471,-340,-267,-954,266,4351,690,-1177
997,93,2684,1575,2096,-1257,-9349,-575,-1264
997,626,-525,-441,-1589,-26,4969,823,-2098
997,2866,-1013,-610,-1803,300,6674,1898,-2592
997,103,-1069,-342,-1330,287,5302,1265,-916
997,-1976,-4448,-1313,-3948,1056,15957,1452,1438
997,-1476,-3424,-1098,-3062,890,13161,1243,1407
997,238,-739,-177,-829,413,4997,605,-973
997,-1020,-558,-275,-851,15,4522,626,-997
997,-838,115,130,-214,-253,1869,387,-1018
1045,539,2970,2615,2622,-1685,-12113,-1280,-860
1045,453,2572,2286,2125,-1482,-10417,-1150,-780
1045,522,2636,2469,2469,-1587,-11379,-1249,-298
1045,874,-1433,-487,-1507,669,9931,1010,-1604
1045,1469,-1183,-322,-961,733,8046,639,-656
1045,-82,-308,247,-717,208,4055,163,1221
1045,257,-18,288,-376,217,3207,164,951
1045,-5602,-2682,-228,-1881,908,10805,754,-827
1045,-1994,-1790,-364,-1753,548,8984,859,-1383
1045,-1753,-731,-10,-764,197,5202,551,-1639
1094,-530,1486,1301,389,-1129,-3834,-636,-1672
1094,-214,-714,5,-1555,192,6110,377,-2039
1094,277,765,886,603,-385,-769,-157,-1835
1094,1202,1975,2449,2269,-1017,-9360,-1526,83
1094,995,2826,3181,3363,-2094,-14966,-1781,-404
1094,-919,-1268,-254,-1518,759,9315,1186,-1442
1094,-1788,-676,19,-785,400,5496,614,-906
1094,-5334,-612,272,-1378,91,4200,496,-569
1094,-5567,-551,409,-798,280,3616,266,-80
1094,-4028,286,798,103,138,639,28,0
1142,-3692,2090,2017,2546,-632,-6056,-447,193
1142,-2448,2291,2137,2142,-1075,-8022,-868,807
1142,-400,-25,824,-429,-61,1677,-9,190
1142,3190,-795,268,-1241,944,6438,184,-3362
1142,4681,-548,527,-735,864,4989,22,-3079
1142,-2687,2284,2131,2952,-1292,-14875,-6378,1811
1142,-662,1970,2175,2898,-878,-13672,-3601,1516
1142,605,-1617,-632,-1919,1064,10571,1480,-2579
1142,2392,-1307,-421,-1551,778,8773,1492,-4438
1142,1196,-731,288,-305,706,4572,1078,-5048
1191,463,3876,2611,3167,-2196,-14955,-1289,-589
1191,699,2379,1963,1846,-1722,-9227,-811,-926
1191,584,2426,2094,2410,-1620,-9824,-907,-898
1191,2244,-2715,-1092,-3416,911,13709,1515,-1658
1191,3091,-1988,-839,-3053,392,10580,1353,-1764
1191,-1986,-1526,-402,-1238,684,7991,965,-2993
1191,-1470,-1496,-74,-906,955,7029,746,-2239
1191,-1886,2388,2072,1462,-1351,-9976,-1668,1399
1191,-2935,1736,2233,1806,-1211,-9898,-2417,3819
1191,1523,-908,-514,-1339,832,9545,-733,-1573
1240,-3867,2731,2261,3439,-1220,-9988,-1498,478
1240,-2428,-1489,280,-45,899,6784,1119,254
1240,-1885,-722,317,-1284,581,5743,1584,-1083
1240,-1619,212,745,-430,-405,1125,1082,-2460
1240,-369,3432,2890,3433,-2188,-14761,-756,-1791
1240,2020,-1922,-382,-1550,983,9473,1646,-2752
1240,831,-1340,-363,-1548,605,8227,1610,-2858
1240,4642,-872,253,-2139,609,8427,1662,-3117
1240,4524,-19,153,-1842,118,6759,2304,-2698
1240,-1050,1682,2665,-118,-1594,-6085,-4267,703
1289,-2912,830,1609,-386,-897,-2888,1201,137
1289,-1904,-1852,-14,-2827,522,8593,2720,-665
1289,-494,-671,352,-2085,614,7540,7744,-71
1289,1608,9,88,-2155,8,6667,5982,-1415
1289,1316,807,246,-1563,-712,3441,3389,-1946
1289,-4,689,2380,2505,-493,-4386,-1039,1712
1289,-663,3527,3735,4307,-2125,-15190,-1543,2109
1289,-2,-1826,408,-2096,1229,9095,340,-440
1289,420,-1596,566,-1868,1457,7912,163,-201
1289,-1085,-2442,935,-161,960,6400,-101,-192
1338,2703,4043,3222,3358,-1355,-13129,-1332,-957
1338,3617,4301,3246,3035,-1906,-13843,-1446,-609
1338,-3287,-4364,-189,-4304,1255,17250,566,2520
1338,-3282,-3489,144,-3381,1437,14482,654,2906
1338,-1147,-2572,519,-2133,1559,11055,386,2904
1338,-3268,-1251,1219,-1274,782,7580,5329,-1583
1338,-1692,-395,1476,-750,182,3532,3497,1903
1338,-3433,1751,2749,2264,-1406,-7260,175,639
1338,-3970,3210,3854,3598,-2060,-14249,-934,610
1338,113,-1152,1443,-940,747,6775,-1128,-111
1387,2371,1861,3102,259,-960,-928,-247,976
1387,-58,-784,1481,-1339,749,8298,711,255
1387,-4613,-992,2014,-1452,628,4940,-533,3055
1387,-3496,-913,1898,-1151,697,4606,-436,3835
1387,-3826,-582,2180,-401,820,3136,-272,2089
1387,-2846,-3505,1097,-3542,768,15158,483,-1198
1387,-3299,-2657,1391,-2299,787,11742,346,-662
1387,-752,43,2287,-2073,-486,4540,353,-146
1387,-765,75,2454,-1192,-269,2949,91,967
1387,-30,3442,5092,3082,-1424,-11902,-965,2170
1434,973,4493,4871,2538,-2646,-13628,-1656,2803
1434,1100,3324,3988,988,-2269,-8523,-867,2247
1434,2645,-105,2662,-2548,629,6041,-93,-3219
1434,3098,398,2330,-2525,36,6312,439,-3098
1434,-1695,518,2261,-3178,-638,9073,1610,1406
1434,-5584,47,2625,-2319,-106,7224,1863,3650
1434,-7035,-95,3063,-1061,369,4028,1210,4006
1434,1013,-1887,2436,-1558,943,9917,3085,-96
1434,-3008,-1712,2881,-510,857,5847,5291,764
1434,-104,361,3391,-1015,-550,3194,-9989,-532
1482,582,448,4962,871,1024,-1835,1719,-3788
1482,-493,3564,6377,3682,-625,-15274,328,-1821
1482,-6010,2290,6297,1967,-1458,-7557,2563,3516
1482,-6659,1702,6339,1918,-1266,-6914,2256,6601
1482,-4688,-1368,4105,-739,376,6745,-866,-478
1482,-1933,-1099,3942,-746,363,5603,-1314,662
1482,-1188,-623,4027,-153,186,3098,-1799,1680
1482,-3416,-829,4009,-1001,59,6071,189,85
1482,-1406,-718,3811,-410,151,5191,371,-878
1482,2181,-722,3934,-2065,-516,9894,1081,-2566
1531,-1771,1241,6298,1674,-1078,-3969,-655,-684
1531,-1091,-748,4595,-1022,-61,6203,488,-1758
1531,1763,293,5375,439,480,3535,618,-5169
1531,3908,664,5146,336,-238,2218,741,-6101
1531,-3341,3317,7434,2156,-2090,-10329,-2058,2413
1531,-2781,3096,6896,1606,-1989,-9183,-1506,502
1531,-1179,3476,6852,2102,-2204,-10935,-1364,-2991
1531,6041,-557,4925,-843,213,7786,-496,-3530
1531,6456,153,4601,-925,-123,5363,-139,-4829
1531,-4843,-1031,5183,-152,506,6921,-3725,2559
1579,-1,2525,6905,1497,-1331,-5445,-3056,-5681
1579,966,4364,7798,2905,-2563,-13876,-11554,-2498
1579,-1255,-3713,4784,-3328,1147,17279,2767,-3811
1579,2010,-2949,4883,-2566,997,14502,2758,-3973
1579,-3320,-612,5593,-744,-254,7525,1510,1849
1579,-1237,-585,5808,-449,-99,5561,1436,1831
1579,-2111,-169,6131,346,-61,2210,712,2917
1579,65,3218,7898,2504,-1911,-10700,-359,-2799
1579,-1403,2618,7901,2797,-1308,-10625,-409,-1123
1579,-150,-1193,6663,-281,828,4986,211,-1217
1627,-1479,1991,8073,2628,-876,-4056,-4989,673
1627,-1408,2227,8029,2504,-1459,-6476,-4346,1632
1627,1800,-1251,6703,1629,727,3701,1175,-80
1627,2176,-895,6433,1996,870,3627,1720,-653
1627,577,-1962,6101,-3654,599,13986,4457,3374
1627,2674,-1092,5778,-3111,-11,11430,4008,3379
1627,2028,-76,7288,-901,456,5935,741,-5201
1627,1472,-59,7067,-623,720,5954,1301,-3362
1627,-3171,-66,7303,87,376,2732,1458,-1349
1627,-4763,2763,10253,3620,-371,-9577,391,267
1675,1525,2291,9461,1537,-2082,-6580,-991,569
1675,2834,1714,8471,1652,-1341,-3163,-659,952
1675,-4745,-1824,7861,-1685,833,9339,8938,-1570
1675,-2310,-1462,7896,-442,982,6994,7929,-2300
1675,-7667,-458,7613,-2369,-424,11438,-7625,4192
1675,-6462,-478,7505,-2127,-558,8777,-5690,5879
1675,-5851,-2541,9117,-1237,1388,10108,1851,-4623
1675,-2782,-1931,8717,-1549,801,8807,1705,-2509
1675,-1460,-795,7894,-1628,-498,6807,1710,-2204
1675,6059,206,8743,149,198,3983,834,-8021
1724,-1640,4082,10370,3235,-2575,-10076,7662,-1689
1724,-723,102,7935,-838,-797,1354,11666,-2245
1724,-695,1431,11426,2232,-1135,-4713,2727,-5079
1724,570,1337,11310,3598,-356,-6720,1008,-4661
1724,-290,-689,9067,1840,605,2085,4381,-9810
1724,-4251,-928,8734,652,-433,1459,626,-5862
1724,-94,219,8646,-1759,-794,7474,1151,-4848
1724,-769,75,8342,-1089,-669,6324,350,-3191
1724,-847,136,8113,-415,-689,4657,-201,-2127
1724,-1306,-1534,8901,-1610,19,10512,-260,-377
1773,205,452,9256,-1813,-2715,3398,-1586,-4496
1773,1829,-1160,8036,-2123,-903,9828,-1053,-7161
1773,-11196,-1618,10441,277,76,4828,-3491,-2693
1773,-10003,-1445,10487,1553,446,2306,-1724,10
1773,73,2246,11318,-481,-3080,3612,9511,-3393
1773,3617,2816,11165,964,-3116,-353,7405,-4128
1773,-2660,-234,9371,-172,-1406,5685,2531,-2409
1773,-4758,-859,9315,962,-171,4191,-831,-448
1773,-3854,-1194,9503,1024,32,2876,-1814,-67
1773,795,201,9521,-1690,-2019,890,-3017,2383
1822,1236,3927,12746,5680,-4647,-18955,-3179,-549
1822,2179,2711,11935,4323,-4084,-14899,-2995,-926
1822,-7742,-2647,8881,-3573,-3039,10094,-10543,-4084
1822,-7098,-2298,8460,-3381,-3112,9119,-6790,-195
1822,7319,636,9265,-843,-2647,6000,2711,-12219
1822,5913,847,9025,-444,-2675,4072,2390,-10101
1822,-4540,384,11880,1420,-3778,-6372,-6361,816
1822,-6138,516,11621,1604,-3472,-7564,-4076,1124
1822,-3564,-463,10362,323,-974,6373,-3510,-813
1822,-3840,-680,9895,16,-1302,6670,-2103,1391
1871,-3336,222,10147,293,-1869,1758,-936,-3213
1871,3990,552,10329,-1612,-2936,6433,-870,-3177
1871,3251,3403,11364,1777,-3317,-4983,-1202,-3578
1871,3102,5050,12058,3566,-3745,-12879,-1162,-3485
1871,-3492,-429,9298,-2020,-1403,11314,-1172,-3352
1871,-4914,638,9102,-1230,-2014,7988,-1216,-853
1871,2848,-290,9770,-1383,-2397,5393,-1043,-2431
1871,-1225,-1484,10274,-737,-1800,3206,2190,-2935
1871,3461,1499,11853,1354,-3640,-7309,3635,-5823
1871,4238,975,11413,1760,-3453,-8733,7662,-10114
1920,-645,435,11488,738,-2547,-408,3852,-4401
1920,-3464,-2397,9426,-1520,-1079,9246,4073,-3478
1920,464,-1500,10103,334,307,5796,4197,-7356
1920,3601,-689,9150,-951,-1232,5861,2535,-6627
1920,-4193,2150,12614,3748,-2606,-10078,-1389,-4020
1920,-2745,2949,12028,2463,-3941,-11486,-882,-2495
1920,7475,-1249,8941,-1778,-101,11337,-79,-2498
1920,9206,-169,8121,-2511,-924,11236,2596,-5893
1920,8768,849,7696,-2297,-1628,9610,4760,-10280
1920,2344,-1535,9875,-676,-607,4124,-257,-3800
1969,-8208,3256,11565,4044,-4336,-14300,-4496,-1074
1969,-7037,2015,11113,2845,-3783,-11401,-4671,2018
1969,-3870,-3883,8168,-1947,-3,12865,677,-1608
1969,-4749,-5433,7398,-2334,1045,16986,978,-536
1969,1360,-2777,8730,-1358,-303,9729,1201,-1004
1969,1836,-2170,8110,-1033,-814,7273,528,-1807
1969,-5172,3607,10961,4038,-2204,-13250,1133,53
1969,-2220,3538,10158,2954,-2301,-11791,-170,-1772
1969,-137,2950,9742,2882,-1939,-11028,-1093,-3147
1969,4196,-1900,6737,-3072,-573,6128,-3192,-13916
2018,-4618,-2359,8385,13,-583,323,3270,-286
2018,-1565,-3911,7380,-201,1186,5630,1867,-1204
2018,-1910,-1165,6748,-1059,85,7769,2443,-9248
2018,-893,-122,6563,32,136,4990,2994,-10233
2018,5195,-2534,4394,-3205,-630,16715,9704,-11667
2018,-65,-3021,5139,-2180,-484,12263,3029,-7884
2018,2957,-1405,5369,-2186,-1633,6055,-270,-6944
2018,2955,-1372,5136,-1889,-1362,5632,1140,-6421
2018,-399,-1204,5174,-877,-745,4265,2555,-5143
2018,5974,2093,8785,3289,-1649,-9510,3931,-1556
2066,-4859,1067,8199,1154,-1991,-9348,-1059,-3164
2066,-2074,-470,7302,306,-894,-6436,-3085,-4673
2066,6927,-1270,4699,-1408,-678,7581,1611,-4775
2066,10238,-998,4599,-1520,-609,7722,1062,-6483
2066,5027,526,4861,-648,213,5078,65,-13129
2066,4411,201,4630,-750,-285,4240,859,-11609
2066,3643,-4329,3392,-4351,-396,17746,1265,-3007
2066,610,-3340,3276,-3354,-900,10996,1864,-3113
2066,-741,-2518,3940,-1977,-1136,3760,1619,-2418
2066,9038,-569,4679,-733,-138,1437,-11613,-6528
2114,-1135,2130,6493,1417,-2193,-6156,7398,3289
2114,-1827,1877,6843,1960,-2324,-11628,-200,1897
2114,-2654,1753,6303,1484,-2177,-9715,-440,1709
2114,-2590,1656,6237,2672,-1498,-9990,-1972,3010
2114,-5672,-2424,3935,854,2492,8054,-2386,1123
2114,-6439,-2086,3815,-1025,1112,6372,3532,-2062
2114,-1256,-1230,4518,-1244,873,10532,5489,5348
2114,934,-529,3990,-1291,471,9284,6567,2538
2114,-473,-2263,4178,-1949,419,6551,-453,-5288
2114,2864,-1933,4061,-1637,319,5685,306,-5419
2163,359,-1941,4294,-891,784,3686,513,-2964
2163,-955,-2017,4561,-27,634,1527,408,-2858
2163,1856,-157,2610,-3153,-943,8078,-3726,-4285
2163,181,137,2282,-2417,-1433,6113,-2478,-4136
2163,-9929,-278,6247,1647,-1978,-7820,-4285,7777
2163,-3530,3186,7500,3530,-3492,-15536,-4321,5875
2163,-2314,-2357,2623,-1674,-312,6689,1935,-3342
2163,-8790,-2936,3049,-783,321,5002,1050,1051
2163,-9512,-2279,3401,156,291,1745,1220,2306
2163,-7091,-2259,2848,-859,243,5773,2959,-5036
2212,-930,2546,5659,4253,-1764,-16445,-3678,669
2212,-2037,2801,5380,3779,-1735,-16208,-3730,-788
2212,-1209,-3295,2541,-1653,1473,8949,2486,-3910
2212,609,-2842,2282,-1429,1182,7482,959,-4691
2212,1788,-1508,1883,-2140,100,6014,1267,-345
2212,-48,-1119,1734,-2069,-237,4731,-217,3985
2212,1465,-1082,5088,2218,-1321,-10217,-6484,-8005
2212,2657,-561,4707,1612,-1385,-9115,-2011,-6276
2212,854,-331,4204,1085,-846,-7716,6601,-6411
2212,3041,-1382,1395,-1378,259,3776,3826,-7309
2261,96,724,2892,590,-665,-1960,4270,-1752
2261,758,-1941,1365,-1773,577,8354,4405,-2653
2261,-805,132,2219,679,191,3514,1107,-3824
2261,-1037,3494,3293,3274,-1046,-11277,-499,-4981
2261,-2699,-3109,1067,-3195,316,10002,-382,-2177
2261,-7513,-3230,1638,-2103,785,7522,126,-1112
2261,3859,-1395,990,-1555,1162,8163,865,-4789
2261,5214,-1101,829,-1619,737,7679,738,-2422
2261,4742,-545,1232,-476,604,2883,-149,-1362
2261,-3159,-184,3970,1894,-1201,-11516,-2329,1409
2309,1067,75,2516,2269,-729,-5882,378,-3543
2309,1655,830,2748,1091,-570,-7481,-367,-3072
2309,357,-1995,972,-1750,356,5718,2070,-4151
2309,58,-1828,1123,-1131,485,4132,4547,-5860
2309,-1782,-2181,1378,-551,560,1871,-1368,-6135
2309,-1421,-666,2920,1280,-716,-7520,-1076,-4742
2309,9528,-481,-34,-2570,598,9911,4641,-5552
2309,5051,-536,367,-3149,294,9446,784,-6742
2309,-2331,-890,1114,-1678,310,5994,-2093,-7031
2309,-704,-1504,940,-476,816,4527,505,-3695
2357,-1172,876,2486,1700,-1296,-5887,-817,-4587
2357,2458,4500,3981,5091,-3130,-23009,-6039,282
2357,-2678,3759,4284,5402,-2288,-23075,-6662,1103
2357,-2629,2134,3265,3318,-1502,-14992,-5153,24
2357,-6712,-3931,672,-1343,1936,9158,2023,-979
2357,-2183,-3338,515,-1211,1504,9499,2904,-2905
2357,-1959,-2919,493,-1569,651,6672,2108,-1870
2357,248,-2558,671,-1309,846,6374,-3122,8
2357,-3108,-1484,-586,-1721,110,5871,1996,-2037
2357,-927,-2210,141,-1285,958,5394,1963,-2499
2406,1371,-1556,1058,-297,936,1202,1731,-6661
2406,3576,-1830,246,-1378,315,4354,2299,-7099
2406,-1259,-3350,172,-832,322,4233,2392,-2432
2406,-1667,-2823,353,-497,427,2321,1800,-4958
2406,7485,6435,2761,4914,-3808,-23537,-44,-3712
2406,7969,3607,930,1337,-2648,-10785,2771,-4174
2406,-1061,-2856,-499,-843,1177,4921,-2224,-667
2406,-4048,-2427,-264,-168,1519,3333,-4144,1087
2406,-4469,-1491,190,663,1322,204,-5808,1725
2406,166,-1643,-297,-758,703,5056,2784,2000
2464,-2991,2365,1848,1160,-1562,-6345,-441,-6836
2464,-889,-2812,-195,-1496,647,6449,2344,-6237
2464,378,-2512,50,-1425,246,5484,2230,-6915
2464,2797,-1564,771,-349,398,2057,1802,-5611
2464,9190,-1352,-811,-2578,-112,6040,6118,-14580
2464,7411,-537,-722,-1824,-326,3016,3659,-11801
2464,1519,-2951,-554,-2230,1096,8867,9276,-6520
2464,131,-2525,-349,-1175,1118,6042,8113,-5894
2464,-6005,-1688,381,-655,938,3484,1297,1710
2464,-4908,-1335,492,-278,782,2033,4395,1455
2513,-1766,3190,2821,3901,-2158,-18817,-588,3183
2513,641,2140,2016,2654,-1468,-13800,-956,1535
2513,3099,1778,2011,2194,-869,-10588,-681,-1236
2513,-59,-3008,42,-2357,1,5178,-6885,4790
2513,4395,-2015,-48,-2023,-170,5762,-3116,-428
2513,-5712,-1430,-304,-1845,570,5362,3924,-2083
2513,-3900,-1885,-41,-904,240,916,2248,-1838
2513,-726,-1706,540,134,249,-2981,36,-1203
2513,-1115,-620,-558,-2342,1068,11487,2863,-4167
2513,-1974,-269,-239,-1108,1145,8357,2735,-3207
2561,1930,1745,2644,3321,-353,-7912,1592,-3929
2561,2484,545,1553,1002,-935,-3069,2432,-4536
2561,3659,-1080,115,-1394,-925,4506,3033,-5023
2561,-693,3178,1952,3025,-2008,-13545,-75,-2548
2561,-1982,1698,1942,1817,-1268,-9701,2820,-2390
2561,11644,-1089,-1174,-2613,150,8344,-5024,8364
2561,9946,-899,-880,-2605,-437,7017,-8403,9312
2561,1580,-1190,244,-1354,-199,3637,-9443,8434
2561,-2049,-2307,-400,-1832,903,6873,-1092,-5755
2561,-3455,-2001,153,-1255,847,5144,-1094,-5557
2609,-3274,607,1852,2777,45,-7092,142,-3186
2609,-830,-88,1216,991,-12,-1801,2500,-3497
2609,789,-1843,-148,-1493,426,5508,2904,-3241
2609,-2836,-2678,67,29,2194,-881,-3041,-2802
2609,252,-1815,-242,-287,1361,-703,-2207,-3705
2609,9736,-1018,-381,-1225,-390,3067,22,-6648
2609,7047,1613,1477,2102,-1159,-8790,-794,-5675
2609,-4382,-3258,-225,-2138,1440,9107,4924,-2650
2609,-4200,-2833,-306,-1449,881,7419,2967,-1530
2609,-4751,-2159,389,40,681,3498,-2214,-97
2657,-609,2354,1573,3337,-323,-10055,-9018,-6047
2657,1178,4286,2146,4149,-1631,-16636,-8736,-2499
2657,-342,3939,1736,2203,-2236,-14238,-6584,128
2657,-197,1041,1276,624,-1741,-7299,917,-1538
2657,765,-3272,-2323,-4767,607,16024,3860,-4564
2657,-2266,-4153,138,-179,2285,7510,899,-822
2657,-2809,-3286,-277,-1220,1427,7414,1202,-1461
2657,-1298,-1719,-977,-2185,115,7131,1590,-958
2657,-5020,-1119,-530,-1308,-329,2528,6499,939
2657,-6736,1967,2010,2394,-1545,-14386,2907,4147
2706,-4531,514,1039,191,-1427,-6913,689,2829
2706,-2554,-2386,18,-1009,448,2295,-3517,833
2706,-3976,927,2336,3381,-792,-14432,-3201,63
2706,853,-355,-575,-480,1986,5204,3045,-3798
2706,2232,-210,-662,-1479,719,3593,2255,-4737
2706,-712,-2291,1158,-1212,-1624,-3365,-1489,-1785
2706,632,-6316,-770,-4326,1562,15760,883,-3840
2706,1219,1791,-1724,-861,637,5638,2415,-2846
2706,2949,1181,-1579,-1019,230,5183,2106,-1341
2706,3506,593,-1185,-694,94,3546,1714,90
2754,-3476,-360,1967,2581,-1171,-11322,-1082,-557
2754,-3149,-567,1618,2059,-950,-9090,-845,-542
2754,-2996,-581,1385,1714,-657,-7335,-519,-1468
2754,315,-2457,-1490,-2148,406,4306,-395,-9271
2754,-840,-2146,-1243,-1545,555,3499,4773,-8828
2754,1119,-1963,-1199,-1135,990,1333,2597,-4813
2754,-5124,-2081,-647,564,1564,464,1959,-2957
2754,1238,-1013,-2118,-2822,172,8839,-8169,-988
2754,26,-989,-1559,-1806,575,6744,-6876,25
2754,276,59,-843,-510,757,3086,-3799,694
2803,-1044,-713,261,-354,-322,2951,4089,-479
2803,1795,-612,-416,-1091,163,6296,4539,-941
2803,3020,3165,1349,2726,-1627,-9229,3025,-326
2803,2178,1147,954,387,-1156,-5398,2472,-5163
2803,127,8,1229,-545,-1293,-4354,2606,-6331
2803,4342,-1642,-793,-43,1399,4754,-900,-1206
2803,870,-1386,-673,248,1289,3412,-2094,989
2803,-8551,-2733,-770,-1100,481,2270,-1225,1157
2803,-4576,-2464,-541,-881,680,1907,-1902,-539
2803,-1770,-1422,-346,-350,242,382,-2070,-991
2852,2200,-1359,1033,-910,-1434,-5707,1899,-3718
2852,2919,-4139,-77,-2543,692,4417,1375,-1838
2852,2362,-2831,484,-446,534,-1237,41,-127
2852,-35,168,-940,-389,900,2320,1586,-1880
2852,-15,-4,-463,-473,759,1952,2040,-1962
2852,-1165,313,236,1035,-1450,-10598,2351,-4025
2852,-2291,158,708,2135,-978,-12532,6350,-4852
2852,1076,-1518,-1564,-610,525,5006,1592,-4862
2852,-960,-1555,-1413,-542,802,5287,1081,-1879
2852,-3126,-844,-1013,-21,659,3116,464,370
2901,6769,4125,1155,3857,-1883,-18152,15538,-12857
2901,3986,2371,587,3051,-1206,-10761,2514,-4878
2901,808,1871,1149,3295,-1124,-11696,-9407,2506
2901,-1876,-2318,-1707,-2193,533,8894,-355,-1465
2901,-3893,-2794,-1128,-1883,781,7805,851,-1687
2901,-1193,-281,53,204,2071,4115,80,-4437
2901,18,667,-43,444,2271,1287,-1730,-1854
2901,2410,1738,-124,85,956,-1198,-1635,103
2901,-2563,-145,1384,1595,-230,-7469,-760,-642
2901,-1123,-246,1283,1406,-742,-7149,-591,-1069
2950,-182,1016,1405,2615,-1438,-10084,-586,-786
2950,251,-642,387,-703,-1056,-1942,357,-1130
2950,793,-2531,-736,-3087,95,7805,1603,-1602
2950,-5645,-2761,773,-342,717,3495,-1487,-5138
2950,-7893,727,2665,2084,-1376,-10981,-3615,-1411
2950,2668,-3466,-1511,-2442,1631,13146,10450,-3194
2950,2576,-2897,-1592,-2509,973,12547,12512,-3039
2950,3627,-1521,-1734,-2189,80,9922,12280,-3650
2950,1290,-2370,-366,-339,1003,4941,3592,-9355
2950,718,-2243,-62,17,1264,4375,2204,-6662
2999,3144,981,361,590,-1558,-3273,4297,-1577
2999,-1570,-3592,-627,-730,958,5814,1554,2664
2999,-7647,-4282,-138,622,1210,2720,-1278,6900
2999,-2020,-1083,-1169,-712,809,3909,-784,-3295
2999,-2046,-1126,-821,521,1220,2589,-796,-2482
2999,3505,-47,488,1247,-134,-6144,-3831,-1157
2999,3737,2801,2176,3814,-1629,-17893,-4296,-1319
2999,4113,2870,1967,3200,-1670,-16441,-3758,-2163
2999,1100,-2058,-1704,-2771,1535,13481,-445,-2490
2999,990,-1237,-1271,-1150,1485,6988,-780,-8254
3047,0,1217,-650,232,-1057,-3108,-296,-2323
3047,-3502,3840,1231,3150,-2365,-15699,-1695,-186
3047,-3268,3614,1719,3582,-2093,-16594,-2249,363
3047,-2496,3141,1923,3005,-2336,-13966,-3286,2405
3047,-1448,-2478,-1096,-3140,1429,11242,-900,1507
3047,-5491,-4489,-865,-1202,2319,8765,-1758,-4341
3047,-2527,-3613,-1351,-1136,1755,8411,-210,-2256
3047,-619,-2568,-1290,-693,1331,6997,3556,-1488
3047,4216,-601,-1131,-790,885,2186,-392,-4246
3047,7536,3444,356,2065,-670,-8352,-1300,-2549
3096,-1182,-1614,-865,-1056,-248,3031,-3431,-6415
3096,1528,-2136,-1561,-1397,685,7039,-4563,-6190
3096,3827,1066,275,1773,-253,-6044,-6594,-4183
3096,5569,-1133,-2017,-2262,23,6178,3018,-11494
3096,1371,-1484,-1441,-1596,390,5336,1986,-6871
3096,2852,2630,1454,1014,-2554,-12156,-808,-2509
3096,4349,-2914,-1994,-4197,692,13737,1847,-4339
3096,7902,-3075,-2178,-3440,1391,15192,2432,-5129
3096,6183,-1179,-1392,-555,496,7157,4307,-3996
3096,1137,-800,-960,1103,56,3969,3498,-5996
3144,-2037,6411,1150,2114,-1778,-15419,-13864,-417
3144,-2162,5189,799,1709,-1140,-11765,-10582,309
3144,-3517,-3002,-1064,-738,2779,9191,9218,-3799
3144,-3478,-3050,-606,254,2782,4545,5823,-2301
3144,-3886,-2589,-303,548,1567,1202,4062,-1147
3144,-2054,-1025,-1827,-1104,632,2582,720,-5808
3144,-663,-395,-1610,-823,627,1414,753,-3991
3144,-2055,-3311,-1825,-2594,1364,10643,1777,-1977
3144,-596,-2338,-1379,-1920,985,7406,1439,-118
3144,1674,-1613,-1094,-1343,306,2678,-3689,-522
3193,6219,2635,-635,-846,-1335,-791,7506,-8954
3193,2510,405,-1762,-2064,107,3856,5606,-5622
3193,-8599,1333,2056,2776,-880,-14638,-2746,870
3193,-3145,2301,1400,2432,-1184,-13800,-3301,-925
3193,-1158,3262,1057,2818,-1366,-14331,-3233,-1733
3193,137,-2850,-1017,-3006,532,8365,1034,-2985
3193,132,-1720,-1109,-2098,405,5683,16,-1159
3193,-1061,-1544,-767,-1817,1241,1298,-2426,-1266
3193,842,-986,-687,-1806,1204,3088,-1047,655
3193,-237,-3674,-1108,-2126,1199,7579,6254,-2269
3241,-1682,977,831,2590,650,-5961,2684,-2732
3241,-919,1394,958,2661,392,-7973,3158,-2969
3241,-750,-911,-1450,-1991,751,7636,-10465,4883
3241,-3352,-2532,-540,-1524,820,6501,-8372,5750
3241,-4098,-3524,177,-744,521,5136,-6323,5076
3241,-8,2012,1469,1795,-1265,-8782,1295,-375
3241,24,1966,1785,2726,-1088,-13409,-2116,2223
3241,2772,-497,-2068,-2581,805,10783,6175,-5603
3241,3658,-419,-1850,-2929,228,14541,6224,-4813
3241,427,-1191,-607,-926,223,2512,1032,-5567
3289,4353,2051,513,1881,-1095,-9173,173,-1001
3289,626,2741,1933,3726,-2548,-18501,-1001,-364
3289,-1170,-5296,-1472,-2809,2067,18089,5938,-8687
3289,-273,-4403,-1215,-2193,1453,13990,4337,-8918
3289,-1159,50,-984,-944,739,5353,486,-4191
3289,-1751,-123,-1047,-268,1189,5434,-563,-4801
3289,-1806,-495,-822,394,1527,4463,-421,-5543
3289,1901,3374,1270,2847,-2660,-17250,609,-6719
3289,2972,3170,855,2000,-1892,-12859,714,-5895
3289,2497,-3577,-1018,-1357,904,5027,383,-3418
3338,-6196,-3579,-110,-617,669,439,-39,1884
3338,-5086,-3080,-322,-549,814,1832,49,2104
3338,1540,-1217,-1120,-1309,306,2992,1446,-1908
3338,2454,-1184,-1015,-414,208,2451,1158,-1971
3338,248,-707,-395,223,12,96,678,-2072
3338,6290,-4045,-1094,-1651,1792,11409,4253,6514
3338,6616,-3485,-973,-908,1222,7916,7346,1182
3338,-4491,-4116,398,-1942,271,3742,533,-2182
3338,-5956,-3296,129,-1385,494,3428,190,-1431
3338,-789,3408,1948,2952,-1735,-16431,-402,-3206
3385,-4363,2827,2266,2605,-2257,-16206,-2618,-918
3385,-5745,2029,1208,1027,-2108,-9952,-3492,1146
3385,-1133,-639,-120,-1875,969,5153,-6804,-1960
3385,2776,-536,-216,-1580,712,4571,-6226,-861
3385,-2066,-1693,-113,-978,629,2462,649,-4750
3385,-1924,-1239,-75,-550,951,1972,54,-2970
3385,554,-403,284,28,1071,355,514,-1510
3385,-2913,-2286,-1490,-3692,1592,9056,-2365,2525
3385,141,-553,-1469,-2014,1925,6699,1196,-1244
3385,1602,614,-1095,-1319,-382,3113,435,163
3434,-2522,-591,1857,1845,-1261,-11569,-422,-878
3434,-919,-4075,158,-1555,151,2130,828,-286
3434,-3618,2314,473,1332,-1732,-6531,-921,592
3434,-4690,2359,951,2268,-1366,-8657,-508,-891
3434,1560,-2622,-1699,-1161,440,6634,-5602,-2787
3434,1399,-2200,-1283,-892,760,4223,-1567,-1819
3434,1679,-904,-777,-324,564,1684,3496,-1602
3434,2027,-2806,-826,-1522,-268,458,391,-2542
3434,2429,-2594,-815,-845,-82,-1575,-649,-2158
3434,2747,-2780,-899,-1641,1295,5232,1899,-3120
3483,-3177,191,-19,-1572,-1095,133,-5190,-2356
3483,-1630,-1600,-850,-2518,116,5791,-2555,-2007
3483,7149,978,-2171,-2297,-249,2242,-687,-5566
3483,4975,-6,-1654,-1831,-670,-721,2740,311
3483,-7863,1228,1568,3110,-556,-12952,-578,1301
3483,-7941,1833,2402,4267,-596,-14665,836,2087
3483,-5911,5547,4424,7735,-2453,-27740,1564,2704
3483,6080,997,-2255,-1275,793,7170,3209,-4809
3483,4727,1414,-2175,-1215,260,5993,2583,-3549
3483,2968,-1784,-1402,-1308,402,4743,619,-2006
3532,2697,5522,927,3433,-2226,-15996,-127,1779
3532,2131,4995,583,1481,-2478,-12148,161,1362
3532,810,373,-2294,-2766,214,9040,1177,696
3532,-2131,1092,-1797,-2691,227,7675,1024,663
3532,3125,-2642,-1587,-1805,778,3548,-2032,-1351
3532,2330,-2040,-1339,-771,1047,1031,-2658,-1238
3532,3482,-1412,-564,-26,602,-2440,-2906,-795
3532,-3425,1024,1324,1975,57,-11581,-9389,3575
3532,-3531,-1084,-571,-1568,339,3939,-926,2020
3532,5256,-1312,-1300,-1550,189,6139,4123,-3895
3581,-6378,-755,-290,-407,-368,-66,-663,1225
3581,-3158,-1790,-797,-1179,464,4017,-2039,-783
3581,-350,-28,1088,3294,303,-8438,-3093,2319
3581,0,2146,2101,3872,-1008,-7696,-3958,1516
3581,619,1809,1811,1972,-1561,-3912,-2370,-317
3581,1132,-1449,-2018,-1592,-15,9430,6256,2374
3581,100,-1269,-1586,-1662,-420,8073,6297,834
3581,637,54,-974,-2201,772,7951,3110,-3125
3581,-1061,643,-608,-1868,386,5727,3053,-2115
3581,529,-784,1209,1333,-2131,-9849,2181,1161
3629,449,146,1160,1758,-1312,-8850,287,-2505
3629,1592,-458,203,366,-414,-2602,583,-1982
3629,-2137,-2963,-589,-2564,-439,5894,-787,-5473
3629,-2427,-2150,-723,-1269,458,2130,-2298,-3721
3629,4779,-574,-1493,-1880,57,5607,2393,-4760
3629,-1104,-686,-763,-676,349,3187,1345,-1880
3629,-3634,1951,1664,3115,-874,-11222,-268,1334
3629,-1452,-3918,-394,-1785,743,6889,2041,-1027
3629,-708,-3506,-428,-1285,370,5572,1835,-1184
3629,2209,2419,-2099,-1664,292,6673,2945,-6010
3678,459,3701,2510,4140,-1844,-17805,-799,-2426
3678,1466,1330,1666,2692,-1359,-12161,-679,452
3678,5373,2350,1848,2589,-2566,-14999,4085,-2173
3678,4511,1944,1714,2415,-1783,-14639,2507,-2092
3678,-1123,-4086,-1408,-1130,1962,9188,1438,-1394
3678,-2023,-3677,-1325,-1212,1470,7759,1160,-1058
3678,-1553,-2125,-1456,-963,388,4607,1036,-985
3678,-410,-994,-1312,-912,667,4285,1259,-1453
3678,532,2063,648,2693,-998,-10108,-239,-925
3678,3046,-2313,-1509,-1686,1150,6441,462,-2349
3726,-1261,-166,487,1314,-871,-4736,-39,1990
3726,-3330,306,869,1005,-823,-6197,-615,3616
3726,-695,-1608,-1802,-2207,644,7499,1235,-1369
3726,-1168,-805,-1732,-2890,263,6874,1231,-1487
3726,1227,1280,456,-569,-912,-2928,46,-807
3726,2418,-1947,-1476,-3087,777,9981,1271,-1469
3726,1875,-2851,-2557,-3723,1152,14440,1869,-834
3726,-2078,-3753,-949,-338,1575,5568,914,-1736
3726,-945,-3328,-746,117,1729,4677,740,-1998
3726,825,-497,-1479,-1784,397,5629,1493,-1210
3783,-4498,3671,1508,2986,-1485,-14966,-1499,1658
3783,-4855,1977,1540,2364,-643,-11246,-1159,852
3783,4686,-2946,-1713,-1859,1075,8696,1485,-3851
3783,2128,-2509,-1444,-1450,739,6532,969,-2106
3783,-261,-546,-1312,-768,1440,6089,647,-1678
3783,-958,-514,-1221,-649,1203,4768,459,-1389
3783,-1188,-690,-655,-953,-170,1822,138,-1193
3783,151,-1969,-1586,-1989,912,8913,1008,-1691
3783,-988,-1358,-1170,431,1029,3342,802,-2844
3783,258,-1147,-1057,403,971,3106,886,-2935
3832,664,3393,1516,3233,-2351,-17693,-1359,-1757
3832,1715,1828,1132,1998,-1962,-13283,-1004,-1751
3832,1529,1142,929,1518,-1661,-10381,-675,-1894
3832,7397,421,-2212,-2319,-913,8285,3719,-7554
3832,1572,281,-1218,-2219,464,7133,2452,-2971
3832,1735,-1939,-1430,-1555,1020,6132,1086,-2626
3832,2443,-1548,-1194,-1319,931,4958,895,-2212
3832,1569,-874,-990,-576,535,2475,479,-1388
3832,1218,2026,913,2429,89,-9051,-1220,438
3832,705,-1105,-1160,-930,1445,5098,-668,529
3881,603,2484,514,2170,-1291,-11837,-863,449
3881,-1138,-1399,-1298,-825,1105,3652,502,-280
3881,-1405,2243,802,2716,-851,-11488,-855,354
3881,-2567,1024,1551,2008,-995,-12023,-975,425
3881,-1933,360,762,875,-1047,-7912,-565,235
3881,731,194,-2794,-2121,1186,8248,1020,-238
3881,405,578,-2462,-1790,1127,7364,863,-64
3881,268,1509,-2000,-1444,629,5145,651,58
3881,-1687,-3814,-1409,-1491,1465,6191,996,-315
3881,-1895,-3376,-1143,-1455,1078,4872,795,289
3930,318,412,-1013,-559,364,1081,265,-698
3930,1537,-1699,-1750,-2050,1033,8282,876,-373
3930,1824,-57,-111,951,57,-2124,-245,415
3930,-4159,-83,-1588,-1017,745,3728,883,1586
3930,68,529,-1708,-1170,20,2730,1199,506
3930,-1354,2180,755,2590,-1194,-12727,-1303,2803
3930,-2423,1649,368,1551,-1106,-9033,-1073,2306
3930,-735,1954,802,1580,-1364,-9753,-943,1947
3930,-566,-2732,-1409,-1089,1713,6502,712,563
3930,-1038,-2011,-1242,-492,1952,4910,655,328
3979,805,5587,318,3335,-1794,-16519,-1044,1265
3979,525,4925,53,2509,-1474,-13009,-928,1168
3979,692,4006,92,2215,-760,-9831,-719,1060
3979,18,-4578,-2603,-3906,1965,17149,1833,1419
3979,1157,-3902,-1950,-3258,1792,14592,1706,1187
3979,1234,1516,-2653,-900,1150,5244,905,675
3979,-378,1519,-2645,-1861,684,4802,892,801
3979,-242,1408,-2226,-2219,99,3689,900,781
3979,1806,4467,-183,1926,-526,-9874,-649,1662
3979,2302,3871,-661,1531,-398,-7528,-690,1916
4028,-388,-1607,-1922,-794,1064,1677,519,931
4028,-2092,-2531,-2082,-1319,1846,5770,778,1345
4028,-221,715,22,2216,484,-7525,-377,1921
4028,649,-1801,-3227,-1952,1016,6345,1674,-897
4028,508,-1566,-2975,-1634,741,5048,1351,-781
4028,-374,-2291,-2979,-2498,1995,11212,1840,740
4028,1633,-2443,-2761,-2114,1893,10039,1761,376
4028,1654,-2454,-2321,-1352,1673,7608,1495,272
4028,-2570,-1714,-1920,-868,964,2854,547,2459
4028,-1153,-2166,-1682,-543,913,1792,254,2853
4075,-249,2043,555,3215,-788,-13939,-879,2013
4075,1008,684,-168,2460,118,-8423,-604,1902
4075,1274,3435,1044,5652,-1257,-19228,-1556,2544
4075,1791,-1744,-2846,-1461,1219,6129,1301,945
4075,2757,-1935,-2533,-1169,763,4616,1107,1000
4075,1667,-1650,-1801,-80,2487,4360,1182,522
4075,1621,-1340,-2041,-625,1768,4140,1062,435
4075,2084,-1325,-3252,-3982,1501,12058,1319,1643
4075,1699,-2318,-3473,-3515,1863,13716,2040,-1117
4075,2483,-1962,-2822,-2238,1218,8732,1825,-2714
4124,-3143,5565,103,3426,-546,-15229,-958,3598
4124,-2750,-14,-1798,-1173,1238,2751,617,3020
4124,-1004,1443,-70,1917,-127,-8684,-387,2889
4124,-466,3282,-1113,2635,-1076,-8465,-153,4388
4124,1861,5871,1460,5238,-1806,-21960,-1086,4199
4124,4720,-1878,-3145,-1834,1356,7331,1412,-838
4124,4482,-1937,-3011,-1529,1413,6600,1336,-698
4124,-948,398,-2850,-920,1645,5015,947,1051
4124,-736,772,-2869,-818,1609,4605,827,953
4124,-274,1092,-2460,-454,1554,3380,718,858
4173,372,-628,-1345,154,47,-3514,-25,1751
4173,-127,-2841,-2835,-2237,1407,7417,978,1181
4173,-1532,-1552,-2105,-390,993,2143,662,1068
4173,826,-2327,-2218,-961,86,2116,562,1481
4173,1085,-1680,-2241,-288,178,1015,389,1296
4173,3649,3663,-482,1994,179,-9850,-304,1346
4173,3947,6892,1575,5434,-1672,-24362,-1596,2111
4173,3356,7068,2229,5914,-2244,-27643,-2231,2860
4173,-450,-676,-3258,-824,1380,8011,1296,-48
4173,-1325,-1080,-2584,-1767,1958,7539,1308,-204
4222,-2255,3240,3,3601,-945,-15402,-1126,2278
4222,-1235,3090,-84,2453,-1270,-13617,-897,2142
4222,731,2499,-374,1537,-1021,-10069,-616,2335
4222,-1303,-3063,-4072,-3098,1925,14442,2023,1354
4222,114,-2402,-3666,-2691,1849,12773,1821,1377
4222,4603,-891,-3336,-1706,1067,6192,1509,-830
4222,1895,-712,-3306,-2035,874,6168,1379,-188
4222,570,-928,-2920,-1766,738,5148,1028,1012
4222,1336,460,-2039,-155,929,1332,673,1117
4222,1149,-2256,-2588,-1183,2320,8853,1210,737
4271,-987,2537,-2538,-1022,-636,-504,792,320
4271,87,472,-3519,-2747,389,7913,1533,100
4271,-903,1995,-2041,247,-279,-1467,648,529
4271,-1658,3977,-283,3181,-1265,-14343,-484,468
4271,-63,3241,-538,2282,-1215,-11489,-433,346
4271,30,-1893,-4037,-3279,1130,12389,2052,-948
4271,-12,-1576,-3945,-3132,853,11229,1936,-937
4271,320,-897,-3434,-2294,774,8532,1570,-681
4271,4673,-956,-2656,-643,1075,3989,942,-385
4271,2796,-1757,-2439,-541,1223,4116,943,-363
4320,915,88,-2518,-1849,357,6114,1137,724
4320,1161,319,-2285,-1096,-580,3947,1123,184
4320,-422,3426,-17,2613,-3010,-11982,-383,680
4320,-1593,-966,-3055,-1659,1114,6430,1278,-237
4320,-159,-1176,-2638,-1234,1141,5412,1136,-231
4320,-694,6364,-852,1775,-2714,-15844,-835,441
4320,-469,5456,-1067,1649,-1668,-11857,-813,947
4320,-1762,5198,-582,2366,-1296,-12108,-1043,1312
4320,-487,-2337,-3028,-1047,2080,9286,1220,-658
4320,-2061,-2444,-2899,-1387,1593,8021,1344,-642
4369,-14,1739,153,3317,-681,-14163,-759,-57
4369,-402,1735,488,2824,-961,-13901,-866,-179
4369,1154,882,24,1508,-732,-8967,-549,-141
4369,814,-4364,-4470,-5163,2375,20079,2159,-39
4369,942,-2797,-4251,-3449,2093,15446,1747,77
4369,-259,-2381,-3374,-2013,1596,8287,1358,-442
4369,606,-1744,-3034,-1819,1889,7490,1359,-439
4369,2173,-539,-2400,-974,1935,4616,1114,-420
4369,1874,3867,-1438,1911,-1613,-11406,-699,501
4369,1358,3697,-1313,1803,-1248,-10821,-675,379
4418,-3177,969,-2102,179,173,-3759,-277,1902
4418,-723,-2689,-3017,-2150,1329,6630,615,1385
4418,453,-2721,-1834,-425,904,1638,270,1083
4418,1033,279,-3317,-1587,1168,5759,1102,111
4418,722,104,-2993,-912,1268,4723,921,157
4418,-445,-1049,-3634,-2418,1984,11096,1539,-308
4418,582,-1775,-2588,-2155,1793,8994,1357,-243
4418,-644,-2092,-1712,-1355,1314,5019,962,-72
4418,1374,-1082,-2670,-1368,956,5311,1244,-467
4418,1156,-785,-2578,-1108,578,4367,1252,-437
4465,4584,8093,487,2955,-1304,-16286,-965,-1194
4465,3061,6795,-262,1678,-977,-11046,-156,-1913
4465,3638,5210,-441,1624,-1013,-9488,120,-1187
4465,-2972,-3159,-2592,-1747,1771,5960,1085,698
4465,-1285,-2448,-2723,-1283,1498,4635,877,553
4465,-126,135,-3744,-1377,946,4097,878,-159
4465,-665,-844,-3162,-1137,861,3028,802,-649
4465,544,-884,-2993,-1496,1059,2912,135,-67
4465,211,-2991,-4546,-3373,2583,14567,1411,-631
4465,-1267,-1203,-3722,-1669,2123,9110,1034,-437
4514,599,1613,-2410,687,-1033,-6657,-40,547
4514,-538,-965,-3392,-1831,334,4011,789,315
4514,777,330,-2576,253,-481,-1505,233,451
4514,-3937,1786,-2372,439,-3037,-8097,-796,2179
4514,-3795,2903,-1083,2822,-4168,-15642,-1557,2693
4514,-713,-436,-4337,-1742,1536,6248,1110,-444
4514,902,270,-4019,-1173,1227,4500,909,-334
4514,1512,-1094,-3334,-905,1693,3607,504,-31
4514,1602,-1015,-3188,-623,1667,2757,275,-17
4514,1563,-283,-2635,86,1131,-248,-23,102
4563,614,-974,-3098,-1637,1160,939,144,936
4563,-225,-1660,-3283,-1384,1694,3436,524,689
4563,1141,2048,-1273,3135,268,-11922,-844,1001
4563,2242,-158,-4298,-1308,1555,4616,933,-560
4563,967,122,-3799,-1448,1372,3797,940,-475
4563,4599,1754,-4108,985,-3435,-8177,-17,-568
4563,2600,3850,-2241,3024,-4589,-18239,-918,644
4563,1242,5765,-540,4778,-4807,-26753,-2085,1723
4563,4218,-1522,-4218,-1749,2392,7533,902,144
4563,5731,-471,-3773,-1090,1859,4595,897,226
4612,-894,4183,-2436,2190,-1316,-9732,-675,1461
4612,1110,5028,-1755,2555,-1932,-13870,-1120,1519
4612,1637,3893,-2281,1038,-729,-8493,-716,1132
4612,225,-3059,-4337,-2277,2454,9127,481,1756
4612,588,-2297,-3908,-2215,2202,7776,526,1757
4612,-886,588,-3619,-2189,2375,7837,956,1117
4612,-1614,492,-3334,-1827,2125,6941,836,1090
4612,-260,366,-2665,-1025,1727,4069,510,1111
4612,2009,3346,-2780,1139,-216,-5998,-559,1212
4612,883,-535,-4351,-2168,1924,8703,576,790
4661,-653,3062,-1417,2090,2010,-9533,-795,1668
4661,-651,-371,-3117,-975,2990,3466,263,1152
4661,830,-634,-3026,-570,2062,3197,410,1205
4661,68,2108,-2070,2700,-1363,-11725,-1291,1558
4661,1487,1805,-2601,2460,-1903,-8457,-802,1273
4661,325,-1214,-4528,-1514,2464,8230,1088,1417
4661,639,-1617,-4132,-1448,2517,7705,977,1309
4661,683,-1590,-3644,-1196,2136,6190,772,1266
4661,895,804,-4667,-1760,-302,5757,974,535
4661,-191,1484,-4383,-981,-660,3204,748,767
4710,2363,754,-16,1982,2725,-8769,-705,1446
4710,4127,-585,-2747,-931,-237,563,346,613
4710,3965,-1673,-4803,-2380,-2777,7468,1315,-79
4710,-1570,177,-3601,-664,1458,3550,428,1215
4710,-148,311,-3512,-1182,552,3367,764,919
4710,-1583,2756,-1212,1672,-619,-10319,-435,4087
4710,-6162,2569,-1352,1974,-781,-8783,-493,4104
4710,-2116,-1274,-3570,-1423,2074,6743,758,2015
4710,-1993,-891,-3509,-1268,1811,5902,714,1812
4710,-359,-86,-3101,-692,1249,3385,570,1714
4759,-1270,3673,119,3665,-575,-16664,-1049,1946
4759,-1525,3005,-434,2476,1225,-12741,-799,1818
4759,-1384,2713,-750,1994,2249,-10541,-625,1636
4759,840,-1314,-4171,-3547,2722,17025,2294,661
4759,866,-1687,-3571,-2634,2261,13725,1921,916
4759,-765,-114,-2792,-822,2905,5455,1122,1620
4759,223,174,-2648,-547,2779,4537,896,1708
4759,635,3032,-1012,2075,332,-9242,-270,2680
4759,1896,1870,-576,1995,342,-8155,-303,2603
4759,354,1468,171,2518,-237,-10010,-481,2508
4808,-1744,-2012,-2355,-524,77,2598,669,1504
4808,-1201,-2241,-2882,-1726,1013,6378,1202,1376
4808,239,1577,-828,1390,-154,-7783,101,1943
4808,335,-1350,-2411,-1084,1996,4886,1018,1085
4808,1781,-995,-2405,-1479,674,4278,1135,915
4808,-987,-3448,-4081,-2548,851,12041,1656,996
4808,257,-2826,-3577,-1123,271,8510,1242,1184
4808,2055,470,-3874,-1929,-1136,3949,1416,-223
4808,1420,941,-3618,-1544,-914,2998,1273,975
4808,2532,1493,-2925,-483,-859,-261,761,1745
4856,1104,2115,-544,1695,-1702,-9081,-659,2033
4856,1063,2170,-53,1980,-1574,-10058,-616,1520
4856,1161,-1264,-2009,-1506,293,5032,577,619
4856,-46,-1620,-2291,-661,915,3998,956,676
4856,-1574,-760,-1753,-128,545,1230,712,-8
4856,-1261,1759,-2928,-1513,729,3468,727,394
4856,551,2080,-2601,-612,871,1854,441,691
4856,-214,-3283,-2807,-4556,462,14802,1662,476
4856,-1268,-3031,-2564,-3514,395,12338,1575,419
4856,-929,-2290,-2245,-1957,332,8226,1130,432
4905,-1501,2160,-643,1046,62,-6242,-478,990
4905,-30,250,-2031,-879,918,3245,590,532
4905,-478,2824,-1147,1380,-240,-4975,-27,721
4905,-831,6366,508,7082,-5214,-26733,-2304,1761
4905,-203,4936,-318,4910,-3781,-19945,-1921,1612
4905,735,-1609,-2718,-906,185,5759,585,58
4905,-735,-1725,-2871,-743,437,4983,537,170
4905,957,-365,-1188,-673,2671,3891,694,-112
4905,684,-634,-901,-728,2277,3453,568,-120
4905,531,-344,-758,-351,1113,1579,377,-23
5003,-757,3873,11377,4096,3756,-17626,-1370,1449
5003,481,2759,10911,3052,4273,-12164,-1019,1257
5003,-447,2860,9822,2637,3539,-11190,-937,1255
5003,-2038,-2326,-2704,-2201,1753,9832,1154,59
5003,-1867,-2431,-3116,-1905,1180,8492,1112,-85
5003,1339,2079,-2916,-1011,947,5993,982,-88
5003,1253,1222,-2423,-533,848,5102,593,72
5003,1022,603,-1847,-121,762,3220,391,141
5003,-316,-2127,-3536,-2785,-24,11250,1208,-148
5003,58,-1578,-2954,-1920,608,8973,1101,-160
5051,-995,1171,-176,3563,-3199,-11262,-864,1564
5051,-1310,-107,-765,762,-989,-4522,-224,1227
5051,-2293,-1491,-1890,-1799,1267,4268,754,691
5051,407,5021,-1310,3146,-5381,-16423,-1351,1498
5051,583,3894,-1684,1903,-4802,-12503,-1087,1434
5051,-42,-2023,-2299,-2044,2126,10284,1759,-107
5051,-2946,-1542,-1483,-885,2880,7228,987,1363
5051,-765,-547,-3005,-1569,-320,4771,774,22
5051,-753,-267,-2496,-1558,66,4559,768,940
5051,-1911,488,-1672,-934,-191,1685,462,1694
5100,-1608,3425,-1057,161,-2297,-4155,-362,665
5100,-3736,1404,-1729,-1038,-2140,2456,370,543
5100,-910,3879,525,2339,-3124,-12391,-916,733
5100,528,-921,-1446,-2062,525,6510,916,-498
5100,1787,-589,-1178,-1402,2212,5373,891,-536
5100,298,3195,2795,2733,-3,-16167,-1334,550
5100,712,2121,2147,3054,-797,-13082,-1283,431
5100,835,2380,1888,4553,-2863,-14519,-1717,584
5100,276,-3075,-1387,-2057,59,10201,973,-31
5100,-1014,-2220,-666,-1592,699,8492,870,-35
5149,1772,3821,2767,4368,8327,-14854,-1075,95
5149,951,3305,2374,3705,6726,-13377,-1060,266
5149,2128,1994,1469,2496,5253,-8668,-584,156
5149,-820,-3777,-1234,-3785,3593,16219,1435,-835
5149,-1780,-3006,-1160,-2851,2777,13458,1264,-708
5149,-348,-1432,-2212,-2090,-47,8152,624,1017
5149,-1962,-1704,-2024,-1771,-295,7175,418,895
5149,-579,-1275,-1540,-795,-993,3481,41,689
5149,623,2294,-211,2383,-5620,-12378,-1293,1226
5149,-203,2500,-244,2456,-7267,-12387,-1428,973
5198,-2932,-411,-1316,-974,-93,-1853,-365,1499
5198,-1399,-1716,-2448,-2920,322,7369,683,461
5198,607,491,-1141,-580,-976,-534,97,508
5198,303,-251,-1716,-1222,-246,6241,861,850
5198,-802,126,-1871,-1050,-464,4613,603,875
5198,-27,-799,-3390,-2782,-540,10955,1211,537
5198,-25,218,-2944,-2194,-259,8985,1110,682
5198,330,-225,-2147,-3231,-3618,6097,692,351
5198,351,569,-2457,-4106,-6226,5003,607,500
5198,1457,1587,-2447,-3348,-8094,1982,271,695
5246,1899,2405,988,2548,-1484,-12625,-1206,1848
5246,1754,21,-218,24,873,-3211,-560,1281
5246,2284,110,-2150,-1132,-1521,3814,770,-16
5246,510,-380,-1516,-2162,-1172,4529,1129,284
5246,914,156,-599,-569,-504,1027,712,838
5246,1469,-205,5,303,61,2885,626,143
5246,620,359,-49,1158,-387,1458,338,253
5246,-183,-2481,-2138,-2986,2587,12917,1111,555
5246,721,-1532,-1808,-2259,1941,9967,1217,-71
5246,772,-2838,1433,-1008,3105,3304,581,482
5295,3120,2447,3313,-1060,648,738,143,-505
5295,5185,2384,2660,-502,969,833,305,-1387
5295,-949,4647,2380,4812,-259,-20572,-2073,2637
5295,852,6284,3313,5982,-2022,-28350,-2824,2915
5295,780,5114,2770,4986,-2205,-24833,-2738,2661
5295,706,-776,-2574,-1262,1006,7151,980,-58
5295,8,-162,-2695,-1320,1447,6376,949,-29
5295,1688,287,-1736,-233,1264,4751,914,-70
5295,2229,747,-1462,-349,163,3868,817,-13
5295,-1069,-1717,-441,-1534,1571,5605,934,283
5345,3,-1171,-728,-556,3507,4297,315,516
5345,892,-494,-393,-127,4500,2807,332,366
5345,1266,1718,-1587,452,-199,-1027,142,291
5345,1080,-614,-2000,-502,718,2977,471,324
5345,1426,551,-1635,-127,-115,1550,281,333
5345,385,777,-714,352,-4734,-2733,-289,577
5345,-616,-1963,-1592,-2185,-2412,11155,1062,11
5345,649,641,-2183,-1166,1100,2488,316,860
5345,2166,-17,-1089,-466,2013,2025,305,556
5345,2267,-270,-18,355,1429,622,248,382
5393,781,4271,770,3780,-4734,-17616,-1444,1141
5393,395,2733,1004,2279,-4383,-12672,-785,1146
5393,356,1769,821,1682,-3776,-9691,-575,1266
5393,-1978,-1568,-2300,-1251,-1666,7536,744,1238
5393,-2961,-1238,-2271,-1332,-2031,6747,786,980
5393,-1230,-1418,-2758,-622,-4130,3391,35,1090
5393,-2267,-736,-2039,-1234,-3160,3389,298,1476
5393,-275,-2257,-1983,-1173,-1567,6532,714,414
5393,952,-2313,-1902,-791,-1134,7276,842,505
5393,-206,-1147,-1659,-308,-4096,3062,489,751
5441,172,3300,-1756,1346,-7120,-8771,-734,1166
5441,1691,4149,-489,2752,-7770,-14262,-1377,1305
5441,-131,4587,3071,2864,-6638,-12336,-565,1033
5441,-139,4396,1096,2785,-5627,-12545,-895,1206
5441,1177,3776,-1190,3028,-5276,-12607,-1084,1338
5441,2179,-1987,-2901,-471,-2149,6397,762,600
5441,667,-1306,-2247,-659,-1919,5410,723,543
5441,1481,-4357,1052,-2251,3131,5363,839,-99
5441,1744,-2900,1028,-960,4163,3755,619,-203
5441,3218,2854,1139,1770,-6305,-10297,-1418,1261
5490,-1183,-1069,-45,-1493,-2723,4208,766,478
5490,-2547,-1968,-818,-2231,-1700,8180,1012,1121
5490,-3868,-1267,-195,-1647,-1543,5340,788,1578
5490,1001,-51,-244,-641,-3260,2169,12,1942
5490,-558,279,-270,-277,-3559,218,-237,2126
5490,-3439,3649,-2757,3632,-8751,-15271,-1374,3329
5490,-3405,2398,-1086,2598,-7279,-11990,-1300,2901
5490,2498,-1240,-4987,-1303,-2168,5993,581,1171
5490,1229,-129,-8316,-1144,-6129,5014,549,1079
5490,1908,736,-8139,-761,-9475,2099,296,1026
5539,1559,3239,7283,3394,-4553,-18344,-1418,2196
5539,556,2960,5638,2077,-3797,-13708,-1019,1360
5539,971,3043,3679,1785,-3518,-11660,-643,104
5539,436,-3425,514,-3001,223,13259,1515,-42
5539,-814,-2809,541,-2317,613,10693,1239,27
5539,-1392,-2396,1205,-585,-128,4205,673,1011
5539,-1256,-1550,1764,-392,829,3332,620,1081
5539,1723,3371,-1329,1858,-4957,-9354,-348,917
5539,1167,2646,432,2307,-4217,-9375,-622,1329
5539,-27,3186,607,2853,-4731,-11475,-932,1375
5588,457,1974,57,1795,-6395,-8848,-767,1590
5588,1607,-1525,-1404,-2727,-3444,7409,921,1089
5588,199,2221,657,1345,-6169,-7982,-239,1443
5588,-1076,-1342,-3651,-1344,-6151,5299,385,1424
5588,1120,-839,-3064,-897,-4363,3944,326,1151
5588,2163,-3154,-1928,-3363,65,14284,1854,-247
5588,729,-2758,-1950,-2876,143,12165,1508,242
5588,-61,-1658,-803,-1224,-4148,2851,119,1872
5588,73,-2383,-517,-978,-4670,1698,172,1787
5588,1039,-1798,147,-222,-4791,-1205,-124,1940
5636,1753,3478,211,1827,-7756,-8831,-782,2652
5636,1692,4135,2390,1340,-5663,-8616,-600,2412
5636,514,898,2831,-2162,330,6618,768,1753
5636,738,-1300,-4039,-469,-1089,4152,356,2734
5636,751,-1067,-2575,-553,-2697,3258,239,2658
5636,-1829,-781,-1826,-247,-3326,2488,180,2420
5636,-819,-205,-1509,-85,-709,720,112,2350
5636,698,-4089,-2465,-3189,-1429,14081,1302,2427
5636,757,-3223,-1782,-2414,-868,11193,1005,2230
5636,-493,-2095,-958,-1299,-1887,6245,538,2077
5685,2775,737,-491,235,-3520,-4456,-553,3514
5685,906,-1361,-1272,-1050,-2290,2864,282,3235
5685,1154,1097,200,2046,-4198,-8103,-670,3368
5685,-5322,4631,2393,5790,-8726,-27188,-2574,4962
5685,-3500,4682,2261,5089,-8829,-25948,-2628,4747
5685,-1158,-4022,1632,-1218,4468,5697,810,1565
5685,-1201,-4283,2928,-729,5555,4606,677,1429
5685,2149,-326,-4119,-589,-2283,3279,796,753
5685,653,296,-8409,-592,-2816,2896,740,866
5685,701,1172,-10507,-571,-3559,863,556,877
5734,-457,297,2200,3122,973,-10166,-958,1699
5734,883,-2544,-1016,-3,1299,2313,132,1032
5734,-436,-1814,-1692,583,1801,409,84,988
5734,676,-777,-2158,-1675,-8035,3221,423,475
5734,1527,-87,-2547,-1457,-8704,2701,549,448
5734,-1205,4559,1342,4909,-9371,-26116,-2459,1669
5734,-1045,2331,95,2348,-7560,-14524,-1450,1335
5734,3141,-1860,-4527,-2790,-7381,6734,1000,-327
5734,2492,-2197,-3173,-2163,-4327,5960,819,-395
5734,996,-1800,-1606,-1182,-2504,3133,538,-510
5782,2079,2956,1844,3779,-7116,-19874,-1990,2698
5782,1754,2024,1466,2746,-6887,-16403,-1911,2576
5782,1302,1372,1066,2079,-6759,-13228,-1742,2198
5782,1010,-2794,-8363,-2198,-1173,12881,1115,3440
5782,246,-2435,-6144,-1315,1099,9800,646,3666
5782,1063,-924,1504,-285,2704,4919,439,330
5782,1223,-596,-981,-491,386,4584,454,168
5782,-237,683,-482,1620,-3272,-8790,-1127,1124
5782,-2035,-2124,-1917,-1245,-1073,3287,-256,1264
5782,-2106,-2221,-1908,-1766,-832,4658,581,-324
5831,1484,2349,-884,2039,-2844,-10874,-943,1054
5831,1261,-352,-3039,-1474,-1214,1983,201,284
5831,2257,5197,-2375,2323,-8436,-14414,-1316,1206
5831,1718,3036,-3574,1445,-8059,-11090,-1161,1160
5831,466,2149,-3254,1976,-7916,-12514,-1444,1301
5831,457,-1101,-8772,-2283,-6061,9258,1045,127
5831,452,-724,-5748,-1959,-4885,7118,655,307
5831,1307,-338,-2526,-2163,-1783,5891,1071,-99
5831,-593,580,-4496,-2241,-3794,5537,1019,-258
5831,368,6468,1580,4265,-8736,-21760,-1790,1445
5880,856,-2089,-141,286,-2207,811,364,100
5880,-594,-4088,-620,-2169,-368,10159,1118,102
5880,-4700,-3540,-1112,-1408,2860,7910,910,2206
5880,-2001,-2126,-3870,-1849,1731,7360,1113,1510
5880,-1777,-643,-5911,-1464,-2921,4535,1047,857
5880,680,5051,6119,2885,-2388,-12352,-1196,2717
5880,490,5413,4468,2649,-3390,-11891,-1252,2820
5880,-256,-2783,-1688,-2241,-4281,10075,1415,-677
5880,1056,-2614,-1355,-1969,-3715,8706,1183,-453
5880,111,-146,-2236,-1310,2615,4699,464,40
5929,1389,4038,-1180,2801,-11462,-15831,-1254,561
5929,1881,3637,-420,2233,-8880,-13473,-1056,442
5929,1932,-4002,-264,-3473,2550,16235,1477,-429
5929,2913,-3085,-118,-2986,1553,13494,1408,-963
5929,1990,-2173,-263,-2602,-311,10130,1234,-540
5929,-2712,-2232,-1181,-1428,2120,6429,795,625
5929,-2853,-1873,-1290,-778,1788,3697,542,865
5929,414,1547,3140,3122,-1669,-13035,-1447,1568
5929,-635,1473,2258,2742,-5745,-11986,-1339,1392
5929,2299,-1755,-2846,-1894,-5135,6133,867,89
5978,193,1050,-2296,-189,-5988,-1905,-215,-628
5978,1872,-733,-2434,-1832,-3130,5421,587,-1713
5978,769,-1094,-3061,-1158,-308,4470,366,2505
5978,933,-1330,-2293,-794,-548,4080,174,2723
5978,517,-1301,-2018,-439,-1951,2634,22,2545
5978,-118,-1351,-3007,-2087,-4192,8381,740,1451
5978,-31,-352,-1463,-924,-6364,4886,707,1089
5978,-2951,-1474,602,-1431,-1575,4676,782,2271
5978,-1188,-1124,1089,-1161,-1234,3893,723,2188
5978,-1387,2558,6613,3066,-3236,-14520,-1349,2648
6026,-115,2109,4247,1979,-12913,-12148,-1048,2611
6026,1011,-616,3515,-791,-8494,-915,-74,2206
6026,1732,-2295,357,-1718,-7801,3848,603,798
6026,1638,-1868,831,-1481,-6044,3001,606,323
6026,665,-727,1468,-584,-5576,-305,297,165
6026,1888,-1213,-2113,-806,-8051,2573,483,448
6026,2104,-1081,-1158,-718,-7328,1608,355,552
6026,234,-1363,888,-3702,-4198,13060,1474,2648
6026,-256,-1528,4557,-2339,-1857,9487,1105,2600
6026,-720,369,7360,843,-4842,2442,351,1483
6075,-1630,2090,196,2005,-9531,-10710,-1136,1938
6075,-1622,-603,114,275,-5606,-277,27,1194
6075,218,4030,4956,5162,-17485,-22116,-2725,2324
6075,393,5518,7412,5496,-16708,-26208,-2784,2300
6075,195,4613,8308,3580,-14080,-21195,-1952,1846
6075,-89,-1586,1532,-578,-4099,7744,430,2525
6075,-225,-1345,-1915,-313,-3748,6604,323,2488
6075,-116,-1587,2121,-1981,-10234,5926,578,335
6075,-203,-1176,2092,-1235,-10115,4030,349,970
6075,993,2802,3308,-1285,-8394,5817,677,769
6124,669,2646,7141,3130,-11009,-12675,-1029,159
6124,495,-574,4811,-7,-8687,-163,-50,-519
6124,-1290,-746,3767,-1428,-12058,4760,535,540
6124,-2313,157,4085,-1006,-10641,3856,389,749
6124,-617,1463,4387,-150,-10218,656,78,926
6124,1247,-1674,371,-2540,-18197,6849,156,-402
6124,422,-2293,4691,-2194,-10629,7768,385,-648
6124,-1876,-1533,7731,-478,-5712,2525,29,1738
6124,-2322,-1520,6819,-354,-5886,1959,-27,1951
6124,1067,-1322,5392,-1015,-13991,2236,-28,1565
6172,423,4071,6239,3019,-20838,-15895,-1148,1447
6172,1806,4115,5393,2591,-19909,-16063,-1172,1076
6172,-3097,-3678,6463,-1922,-8912,9603,622,2213
6172,-1980,-3249,6672,-1688,-9301,8334,551,1898
6172,-292,-2459,6245,-1247,-10327,5970,475,1268
6172,-1239,-1107,4454,-280,-12361,3685,518,831
6172,-1166,-910,3958,-198,-12738,2633,336,928
6172,1899,4784,-6600,3124,-18500,-15343,-1436,1542
6172,1985,8153,-2290,5020,-23182,-27420,-2391,1885
6172,750,-616,7893,-1654,-14628,5204,525,200
6221,2380,2884,1393,1786,-16976,-7271,-714,768
6221,2186,267,1585,-601,-11508,3522,499,-343
6221,1810,2011,8592,2471,-18623,-13016,-862,940
6221,2780,1172,7011,988,-19641,-8714,-632,480
6221,3189,1104,7420,1276,-17340,-8779,-714,537
6221,-44,-1290,7053,-1567,-8128,8371,905,2335
6221,-997,-1983,5557,-1622,-10811,7733,784,2169
6221,-1135,-2621,5926,-1075,-14447,5452,626,1848
6221,791,-2248,8217,-573,-12946,3649,453,1688
6221,-796,1401,9450,2986,-10221,-10636,-1245,2432
6270,96,1544,1859,-2458,-17565,6565,574,2019
6270,720,1243,1976,-1642,-15106,7169,540,1793
6270,520,4799,4664,2150,-18383,-8316,-515,1943
6270,1199,-3022,6848,-1119,-14179,3504,353,1477
6270,945,-2787,6592,-2370,-11410,2887,500,1462
6270,1861,2951,5364,1275,-19259,-8770,-309,1085
6270,1030,2776,2204,960,-26723,-8708,-691,1554
6270,2755,-3857,8380,-1434,-21925,6615,260,1094
6270,2663,-3236,8371,-905,-18027,5076,262,606
6270,457,-1010,2554,-1328,-14823,4203,228,51
6319,-2940,2713,11431,3456,-18143,-14560,-1713,3038
6319,-2384,3136,13174,4001,-16933,-17890,-2301,2934
6319,-193,2236,12348,2649,-14401,-13285,-1878,2496
6319,-3638,-1521,5520,-2618,-11667,12994,1198,1425
6319,-1131,-2507,7829,-1598,-18283,5215,579,416
6319,-945,-2024,7248,-1243,-16674,4143,376,542
6319,-425,-1356,7003,-780,-15662,2245,329,595
6319,733,1191,13476,1465,-14976,-9141,-743,1606
6319,-1270,1093,12067,1261,-14388,-8356,-840,1963
6319,-541,-122,5856,-1824,-18335,6586,716,1173
6368,1079,-231,11372,1164,-19203,-7111,-764,1954
6368,1043,-2658,9141,-1960,-15243,5769,293,1372
6368,777,-2403,11299,-664,-16192,3721,-47,911
6368,-86,-1178,11337,-626,-14394,3141,71,769
6368,102,-4286,12894,-2829,-11256,12876,394,762
6368,936,-3565,9589,-2643,-15170,10875,431,917
6368,-943,-3030,6341,-1553,-19127,8252,456,1121
6368,2398,-971,8668,-13,-14503,1674,241,-1420
6368,3282,-831,8613,540,-12548,743,63,-942
6368,62,3127,10971,2394,-26448,-12557,-1835,1682
6416,349,1361,11888,1850,-20952,-10888,-1542,1740
6416,-777,1483,11110,1246,-21556,-8247,-1057,1159
6416,957,-1454,9196,-512,-16813,3606,148,340
6416,274,-822,9643,-542,-16537,3197,249,132
6416,204,594,8280,-1252,-16261,2599,166,858
6416,1985,1030,8315,-771,-16256,919,-17,713
6416,2498,1680,8382,-103,-17190,-2036,-331,749
6416,546,-3832,8670,-3424,-15763,14059,1159,495
6416,578,-1631,8939,-2495,-13782,10129,935,449
6416,145,-361,6578,-442,-21171,1173,-10,-220
6465,-131,4090,9749,-268,-20101,-1836,-271,805
6465,-2004,3808,8541,-687,-17270,2386,100,1179
6465,184,2187,11855,3002,-28346,-14131,-1309,-9
6465,494,4118,13646,5688,-31776,-25988,-2632,798
6465,1556,-591,6848,-2212,-19616,6427,550,637
6465,895,173,4294,-2014,-22456,5889,796,133
6465,988,859,4543,-692,-22488,2703,470,-168
6465,76,-2579,9680,-511,-16762,2240,-358,1215
6465,1459,-1797,9444,-86,-16900,521,-707,1420
6465,-1302,-1461,4003,-1051,-19160,6145,352,765
6514,144,2523,5869,1062,-29607,-8432,-925,104
6514,1398,-241,3915,-1254,-23451,2773,46,-112
6514,-608,27,5539,-1188,-18139,2558,171,737
6514,-407,388,6646,-410,-15186,1717,38,810
6514,-671,4077,14395,4502,-33572,-21315,-2238,1221
6514,130,5878,15001,5762,-35287,-28435,-2980,1534
6514,1775,4872,13549,4538,-32094,-23904,-2637,1512
6514,-248,-1179,8025,-2430,-15218,7421,345,783
6514,2020,260,7118,-2232,-16941,6143,808,-323
6514,-52,-1111,4826,-1777,-21967,4672,573,-206
6562,2651,2642,6950,2292,-27711,-10833,-1214,1492
6562,2107,5200,7970,3569,-30260,-18379,-2133,1861
6562,-3922,-4824,9717,-3178,-17197,13000,834,1838
6562,-2145,-3960,10611,-2581,-17169,10489,636,1673
6562,-2761,-2457,4075,-1009,-19813,5572,-282,3893
6562,-2051,-2177,4333,-1223,-19391,5190,-177,3503
6562,-1348,-1398,5332,-752,-19395,2652,-351,2903
6562,-591,2064,3656,75,-29999,-6883,-1367,2567
6562,454,2608,3788,937,-29395,-9390,-1607,2306
6562,1977,248,2286,-880,-18036,5643,272,188
6613,-529,1602,3831,436,-25210,-4469,-695,505
6613,675,-1284,1593,-2127,-18040,7946,185,64
6613,633,-1043,1544,-1335,-17870,6004,116,189
6613,1700,5968,6118,501,-28292,-8807,-1036,1046
6613,1834,5111,6117,635,-25780,-7946,-1039,1125
6613,-608,-2422,2667,-1018,-16877,7567,483,-333
6613,1095,-1839,3311,-729,-16027,5845,298,-112
6613,-758,-895,721,-1036,-20597,4017,-171,1622
6613,-2362,-1719,73,-1521,-21432,3945,-130,1460
6613,-1668,-1713,284,-1180,-21791,1617,-148,791
6662,365,-1326,3052,-165,-16935,-563,-762,1613
6662,-884,-2450,1923,-1043,-14126,4522,-163,1701
6662,-449,-1653,2058,-504,-16104,2121,-296,1876
6662,83,546,668,-1770,-21639,3875,22,1067
6662,-1167,467,1375,-1633,-19763,3165,-36,2636
6662,351,1182,4564,1258,-25216,-9696,-1067,1248
6662,-1790,1228,4340,1456,-24400,-9610,-1070,1522
6662,-47,-1877,1965,-1332,-19062,5829,399,90
6662,176,-1827,2795,-1017,-17190,4826,259,135
6662,517,-1149,3681,-191,-16788,1510,-14,218
6711,-660,3439,6272,5250,-32111,-19216,-2162,961
6711,-321,3025,6838,3363,-28440,-13783,-1671,848
6711,-22,2975,7421,1543,-24826,-10163,-1181,896
6711,863,-417,-4619,-1898,-16867,7039,864,-1767
6711,-191,-763,-2704,-1343,-16664,5167,680,-1836
6711,-1142,-1997,817,-811,-15495,5116,565,447
6711,-1124,-1295,728,-805,-16871,4392,420,551
6711,1137,1774,-286,871,-28248,-8573,-684,-145
6711,-198,715,-986,779,-27380,-7526,-569,-328
6711,-175,490,-2215,662,-29250,-7548,-910,-117
6760,-716,-140,-305,-1722,-22104,3301,771,-1313
6760,-1932,-914,-653,-2101,-20038,5192,636,-134
6760,-1374,2261,2393,1804,-26174,-10721,-1140,1506
6760,252,1655,1479,814,-24247,-4149,-321,794
6760,1552,3526,3352,2199,-27959,-12596,-1366,1436
6760,-2209,-2466,-4198,-2843,-21903,9309,310,1335
6760,152,-2039,-3530,-2856,-19341,8940,572,764
6760,-147,-1430,-1940,-2160,-16940,7090,581,419
6760,-1138,-1968,1740,-1167,-14494,5630,179,-400
6760,-1210,-1729,2405,-217,-14930,2424,-165,-5
6809,2190,1891,2521,1668,-21547,-6626,-1024,837
6809,2303,443,4180,-295,-14560,-469,-753,391
6809,3348,315,7642,1444,-11237,970,-586,-52
6809,-810,-350,-236,-854,-18032,4146,-230,952
6809,-380,-317,75,-751,-17448,2775,-288,914
6809,611,2077,4024,1695,-23021,-8406,-706,2023
6809,2286,3410,1517,2157,-26134,-12798,-1336,2206
6809,1068,3291,-1596,3436,-26996,-12440,-1650,1720
6809,2354,-764,-3432,-2639,-15401,9646,715,-1350
6809,2160,-383,-1909,-2586,-11350,8991,964,-2097
6858,191,4262,4232,3577,-28358,-16218,-1680,1021
6858,-241,3354,3068,2543,-25796,-12808,-1570,1050
6858,-244,2288,1983,1712,-22988,-8970,-1302,1173
6858,104,-4246,-371,-2257,-12720,12604,1172,254
6858,1085,-3718,306,-1762,-11568,10969,855,480
6858,1,1054,-389,-532,-15240,4793,214,-312
6858,-184,372,-317,-1579,-15298,4504,515,-317
6858,-165,-76,56,-669,-16628,1143,90,176
6858,1076,1244,2605,2037,-24056,-10818,-1136,906
6858,1196,671,2635,1870,-22187,-9629,-1244,1198
6907,600,-930,8579,-1656,-15146,4850,323,-705
6907,1604,-2044,5719,-2404,-12885,9221,720,-900
6907,997,996,5122,747,-19428,-3673,-168,-279
6907,-164,-1966,-2250,-876,-12594,5711,311,2667
6907,617,-1860,-2169,-703,-12535,4745,182,2559
6907,1394,-3695,-1053,-2421,-8721,12255,1068,-325
6907,830,-2506,-3061,-2783,-11180,10536,1108,-473
6907,-61,-1459,-2266,-672,-15917,3306,215,530
6907,-143,-1323,-1158,-742,-11728,2722,372,294
6907,-997,-637,204,231,-10040,-530,197,-285
6954,433,711,2720,2793,-22756,-14648,-1399,62
6954,1654,469,1822,1859,-19894,-10837,-527,-2296
6954,268,4001,-2197,-2464,-9673,9211,556,1011
6954,1663,2944,-2434,-1771,-10008,7571,190,1284
6954,-492,-3441,1186,-1353,-12301,4771,-19,1908
6954,-268,-3038,1402,-1223,-11354,4511,90,1541
6954,-1550,-2412,1482,-849,-10956,3147,184,1616
6954,1503,-1467,-2394,-1884,-8201,8716,-459,965
6954,2046,-564,-1840,-1349,-9365,5900,-212,-627
6954,2525,-601,-1523,-363,-11962,1990,666,1666
7003,1484,460,439,434,-15816,-4104,-511,-1252
7003,1283,-1280,-971,-819,-10012,3034,260,-748
7003,-2142,1856,1105,2306,-20317,-10973,-2803,4858
7003,-2120,1803,721,1751,-19082,-9736,-2770,4958
7003,-1125,2697,623,2108,-19326,-11489,-2780,4275
7003,952,-2521,-1268,-737,-10716,6426,1128,-2313
7003,1032,-2611,364,-430,-9484,4675,1078,-2486
7003,-1156,-3715,1329,-733,-3078,3272,-466,3200
7003,-1678,-2418,1470,56,-2506,765,-471,2220
7003,-196,-2396,-1074,-2811,-5429,11202,216,3303
7052,335,1428,-1799,56,-13666,-2854,-1367,991
7052,-487,40,-1993,-32,-9899,1632,-768,-1115
7052,-3029,-1612,-1245,-743,-9862,2328,73,-444
7052,-171,-278,-1329,-579,-9452,1875,179,-1071
7052,-12,1752,-944,86,-10419,-844,71,-1251
7052,-1192,1775,-4714,1839,-15668,-10070,-3727,2629
7052,-2773,1526,-3294,1713,-17427,-9577,-3936,4001
7052,-1374,-1654,-1515,-665,-2476,5163,484,325
7052,172,-1467,-608,11,-3960,2755,367,1246
7052,-1227,-2665,-787,-185,-4174,3692,839,277
7101,-501,3909,690,6010,-15550,-21639,-2544,1386
7101,-145,3646,1381,4914,-14015,-19572,-2463,1474
7101,1605,-1963,-4806,-2496,-1934,11573,1263,-1430
7101,3039,-1323,-4626,-1899,-3961,8561,1048,-1620
7101,3679,-426,-4265,-1102,-6377,4582,626,-2039
7101,-941,-2467,-3587,-1253,-5640,3807,-494,2610
7101,-1070,-2435,-2729,-1108,-5452,2745,-522,3463
7101,-246,6139,-2759,1136,-12204,-8852,-207,-1552
7101,627,5490,-3005,1657,-11099,-8391,37,-2102
7101,3182,-1471,-6035,-2063,-1788,5296,1038,-1436
7150,1006,1440,-5190,548,-6591,-3377,-570,-329
7150,722,-369,-6818,-1094,-2458,5257,277,-1080
7150,617,1706,-5560,1212,-7162,-3393,-279,-773
7150,-1215,408,-5197,2480,-5025,-7202,-1145,-2132
7150,1382,3989,-2667,3117,-11872,-19132,-1766,-1302
7150,-7080,-2782,-10209,-1637,571,9124,-383,3960
7150,-6621,-2476,-8784,-998,-288,6516,-436,2678
7150,1378,-1573,-10172,-1167,-1240,4755,372,-98
7150,1434,-1056,-9578,-782,-1445,3960,500,-860
7150,1380,1638,-9432,1416,-7497,-9002,-1221,-1650
7199,963,2858,-10423,1327,-5968,-7095,-1721,4041
7199,1675,251,-12200,-1893,1091,5892,-602,3553
7199,1661,325,-12456,-1584,1624,5442,-565,3223
7199,-972,-2662,-11881,-1539,4249,7508,1187,-1416
7199,-1148,-1954,-11510,-1385,4596,6130,1122,-2086
7199,1780,2184,-9251,550,-5008,-6662,-1411,1973
7199,1612,4584,-6561,3540,-10446,-18374,-2459,2093
7199,2302,-2477,-10870,-3963,8600,11010,935,-2034
7199,1165,-2050,-10025,-1906,7182,7728,213,660
7199,-256,-1139,-9473,-492,4831,4087,-339,3147
7248,-787,3012,-10132,2811,-13960,-16543,-1524,1828
7248,-969,2513,-10386,1391,-9019,-11076,-1036,1288
7248,1012,2907,-9120,1665,-6063,-10018,-796,746
7248,2434,-3100,-12444,-5371,9671,18949,345,-366
7248,3331,-1952,-11627,-4039,7914,14851,-47,-656
7248,-5364,-3259,-10462,-635,4810,9199,3448,-1563
7248,-5778,-2908,-9914,-1305,4295,10803,4256,-109
7248,-2275,3726,-6408,3354,-8383,-16617,449,1220
7248,-2153,3078,-7023,1243,-7554,-12464,1149,2588
7248,-2681,3162,-6996,885,-8479,-12536,848,3628
7297,-2206,-180,-8334,-650,-1322,-5041,-1824,5116
7297,-1710,-407,-7153,328,-1201,-7403,-2114,4724
7297,1659,-2547,-7597,-354,6433,2349,-641,2271
7297,-2477,-593,-10045,728,5334,6780,739,-2317
7297,-1487,-1163,-8106,-1664,7101,7620,1242,-1697
7297,-69,-3295,-7999,-1000,10599,10371,352,-259
7297,1139,-2507,-6952,-623,11251,8513,225,-576
7297,-812,-568,-8363,-1409,5451,7776,1228,-1842
7297,-409,-1999,-7958,-1424,5707,7220,943,-1572
7297,-769,-2461,-7652,-850,4787,5400,591,-1287
7345,1583,1526,-4790,3299,-4532,-10655,-1626,1274
7345,1296,1847,-5326,2306,-3788,-8814,-1038,-1010
7345,1240,2341,-5461,1912,-3988,-8613,-776,-2763
7345,-2533,-665,-5987,19,5135,5934,553,152
7345,-3373,-115,-5213,384,4735,4796,891,-569
7345,3291,418,-6120,-1100,3401,5761,-827,-1276
7345,5518,598,-5671,-1178,2192,4685,-461,-1386
7345,-4504,1014,-3455,-946,-6536,-2321,-387,6504
7345,-3092,-3010,-6387,-5493,4278,15797,1197,4136
7345,-3968,-2546,-6005,-4997,4046,13484,1065,2005
7393,536,4072,-4371,1439,-6733,-5337,972,-7520
7393,627,5327,-3441,1797,-9718,-9749,272,-9625
7393,-5605,1602,-2001,868,-3656,-7672,-2092,4121
7393,-5333,1725,-2029,1121,-3074,-7317,-2053,4074
7393,-2552,2414,-1693,1350,-3568,-8888,-2027,2930
7393,-3148,-830,-3469,-670,10791,8448,136,3023
7393,-2029,-417,-3334,-409,9007,6695,174,1365
7393,-781,-860,-2568,870,12231,3928,-122,703
7393,-1370,-599,-1780,-57,13844,5031,144,558
7393,-2620,-1809,-4228,-1799,19027,9325,521,1771
7442,-727,-967,-2554,-996,12905,1911,-488,478
7442,-2248,-1611,-2746,-1476,14062,5431,220,199
7442,-781,2208,-628,2526,5571,-9306,-718,76
7442,1402,824,-5604,-80,11638,5148,629,62
7442,2217,1019,-4302,448,11228,3363,429,426
7442,549,1528,-683,2339,4804,-8535,-1259,754
7442,-162,1208,-615,2210,4744,-7424,-1146,1259
7442,-804,2097,-2957,-2511,12610,7958,-236,982
7442,856,2382,-2964,-2151,11432,6630,-134,-886
7442,448,2767,-2756,-606,9056,2925,-475,-1232
7491,3519,4376,780,2536,-198,-13797,552,-2603
7491,3816,3174,177,325,1546,-7678,681,-2196
7491,1435,2648,-33,-717,1466,-4546,-335,49
7491,607,-1193,-3318,-4000,13119,11248,911,-263
7491,2294,-502,-2958,-4508,11617,10049,207,-144
7491,-856,-485,-2598,1067,13249,4826,1292,-1343
7491,-1728,-164,-2476,569,11793,4421,1149,968
7491,737,3298,-76,1711,9898,-7672,-677,1022
7491,-369,2902,-138,1567,9948,-6496,-474,778
7491,2394,4088,1048,3361,6825,-12126,-597,1056
7540,-645,-304,1719,2803,30222,-8577,-1058,1249
7540,-159,-825,-2007,-817,34082,4103,-31,1554
7540,-1511,2873,45,3033,23566,-11148,-948,2275
7540,-1908,3439,42,2201,41971,-3953,-285,3288
7540,521,4726,1157,3059,36672,-11223,-839,1825
7540,-818,-2786,-3443,-2516,55616,12854,975,-862
7540,-414,-2510,-3350,-1991,51918,11762,1099,-681
7540,367,-1636,-2593,-931,51913,8240,991,3618
7540,-3911,-2022,-2077,-460,49108,7066,485,3884
7540,-6335,-1479,-1267,367,45252,3679,220,2526
7589,3438,1705,-836,671,40496,-3884,595,-3569
7589,1841,-234,-1921,-1137,42288,4340,532,-2518
7589,2740,-1788,-2508,-1736,43484,10325,536,-601
7589,2166,-2060,-1551,-527,42276,5918,257,1318
7589,1212,-1571,-1284,-100,39012,3347,64,-433
7589,-1770,2168,1261,4935,33854,-16282,103,4634
7589,-2535,2445,1452,4836,30732,-16113,-546,3282
7589,-1245,2931,946,3669,28340,-11161,-307,1452
7589,-2449,-1436,-1841,-1807,38019,10856,-140,3474
7589,-3551,-1064,-1849,-1453,34917,9256,-160,8581
7638,-2275,6402,2033,3323,22778,-14976,-1532,-699
7638,-1015,4482,1412,2335,22942,-10567,-1213,-415
7638,-1114,2452,1198,1911,22544,-7538,-896,-82
7638,-2760,3476,1774,2380,17688,-10032,-1349,281
7638,-2584,1528,580,-50,19366,-2651,-1244,156
7638,2545,-2791,-1995,-1991,28572,11487,1392,-941
7638,2179,-1812,-1837,-1487,26577,9692,1219,381
7638,-5171,9,877,2919,22875,-7134,-649,1115
7638,-3575,-236,658,1617,22292,-5566,-545,-423
7638,-1950,-1014,-1613,-2041,36166,11921,1783,2641
7687,272,-2489,-1264,-2098,34279,9023,432,3415
7687,-1043,-2898,-1531,-2276,33863,11478,707,5328
7687,-1264,-1867,-1654,-777,36801,5825,-6334,13
7687,-1383,-1514,-1326,-727,35269,5791,-3703,-338
7687,-565,-738,-1189,-790,32875,6090,-123,-1388
7687,-2176,-4807,-2434,-4693,42424,19497,467,1108
7687,-3649,-4175,-2109,-3752,39969,17199,626,685
7687,-2843,-227,-751,-968,39873,6230,1324,-656
7687,-3383,57,-308,-749,37374,4172,811,1201
7687,-736,2581,2097,2133,37465,-11162,-4394,-3590
7734,-2910,3413,1855,1143,37268,-10683,-6149,6031
7734,-1625,2459,952,-246,36397,-5201,-3612,2179
7734,1589,-83,-1350,718,47234,8615,2289,1822
7734,4141,29,-1349,410,43843,7377,2078,712
7734,3695,-1134,-1189,-2613,45893,10561,3131,-1434
7734,2742,-427,-1143,-2015,43553,9359,2649,-2719
7734,2853,420,-750,-1308,40660,7005,2172,-3767
7734,-2319,-3487,-1720,-2466,45698,14574,2863,2721
7734,-1331,-3065,-1738,-2097,42821,13333,3117,3495
7734,-4682,-925,151,473,41779,3884,883,-1626
7783,740,3066,2343,1625,34733,-10721,-439,843
7783,1501,27,357,-1460,37213,2317,316,1703
7783,-2248,3707,1597,3033,36512,-8270,-769,-205
7783,-765,3603,1465,2513,34620,-6989,-304,-1686
7783,-88,4211,1631,2174,31552,-8240,-210,-2378
7783,-4389,-1642,-155,-689,40098,8572,2102,-143
7783,-2347,-976,-258,-337,37462,7086,1563,-3097
7783,-2495,-1437,-245,-915,38182,5885,-211,-4801
7783,-1805,-965,-167,-912,36208,5299,-234,-8503
7783,5656,-2134,-894,-2392,38897,8538,-9242,-3095
7832,-1026,-594,10,-171,33807,-471,4657,-656
7832,1111,-1635,-1308,-1843,34465,7340,4730,717
7832,-3403,-1829,217,360,35691,4298,1432,-268
7832,-1542,-1360,251,-338,33582,4032,831,-1955
7832,-2228,-307,554,-1037,31414,1875,-449,-1489
7832,240,1738,2026,2241,30180,-7979,-4830,8105
7832,-639,1736,1860,2301,28557,-6732,-6359,8537
7832,-5476,302,-238,-670,35885,4864,1381,-1559
7832,-4585,231,-389,-681,33716,5498,2253,-1703
7832,5181,-288,-1121,564,32060,4532,3203,-1418
7881,-3921,4293,3418,3526,26769,-17847,324,-1703
7881,-8011,2838,3188,2810,26075,-15707,-1858,-1782
7881,1767,-2924,-1085,-1902,35003,12382,1445,3156
7881,-761,-2480,-648,-1054,33142,10217,839,92
7881,-468,-1880,5,-173,30765,6988,149,-975
7881,-3032,-1506,370,-1771,31728,4949,-317,3062
7881,575,-512,427,-1462,30060,4357,213,1015
7881,-4558,426,2470,360,26262,-6208,-1839,409
7881,-2736,633,2460,1078,24916,-7331,-5855,2439
7881,6078,-525,-219,-1630,28506,8721,-788,-1509
7930,-7771,-1865,1793,2023,27334,415,-380,2866
7930,-8501,-2994,419,-310,27089,8148,791,2881
7930,-4660,-395,1060,-1271,25798,3359,622,-117
7930,-1781,1362,1689,157,22615,-2061,175,-1790
7930,1657,5014,3409,3117,17073,-15367,-485,-4705
7930,-636,-1793,-1,-2373,25158,9024,6252,-1588
7930,3132,-1177,314,-2179,23773,7885,3809,-2490
7930,2485,-3221,881,-611,23170,6160,388,-2499
7930,1426,-2891,898,-551,21413,4406,-919,-928
7930,5776,3772,3134,2125,19824,-4102,-7702,5923
7978,2260,3055,1957,-326,17066,-2272,8637,-9556
7978,-5370,772,1783,-1509,17601,-351,8293,-5015
7978,6161,-578,784,-3783,21326,10626,4453,-4209
7978,5005,-13,512,-4007,19862,11815,5500,-2511
7978,3920,557,910,-3383,18208,10334,7613,-318
7978,1353,390,1310,-1653,19113,5049,-5863,-541
7978,3869,945,1178,-800,17829,2069,499,2502
7978,-12028,-3306,1365,-97,21036,10430,-301,-1870
7978,-8869,-2606,1499,656,19485,9014,-821,-566
7978,1683,1195,1536,-1497,19934,3382,90,-2768
8027,2957,7969,5488,3749,13047,-16186,-1883,-2750
8027,2212,6279,4553,1836,13346,-10783,-1765,-2014
8027,-5443,2483,6507,6675,13379,-19570,-8302,5038
8027,-5552,111,4927,4041,14556,-11411,-7637,3863
8027,-4754,-3562,1987,478,17352,4305,-3444,225
8027,4374,-757,674,-3686,17517,8570,-4189,4251
8027,1437,-522,628,-3484,16169,8023,-1744,5452
8027,-5413,-788,2680,-2251,16622,4696,-4796,-11293
8027,-3971,-573,2768,-1869,15274,2447,-9391,-8288
8027,3236,-1149,2186,-2187,17290,7791,4598,1792
8076,3450,2384,4981,600,12460,-4217,-4025,9550
8076,5406,83,2804,-2612,14607,4960,1260,4441
8076,2215,-1862,2286,-1814,14676,8464,4309,-17488
8076,-292,-2678,2681,-1645,14531,7352,3657,-14242
8076,-2949,-2713,3449,-276,14066,4369,1893,-9873
8076,-1985,581,6024,966,12225,-11859,-2589,-8892
8076,-879,-3242,2757,-3299,15942,7285,-1329,-8910
8076,4106,-78,2639,-3353,13590,7932,-4330,4004
8076,1592,958,2057,-3979,12126,5418,-6400,3901
8076,-7510,499,4112,-494,12911,-1889,-4335,-10272
8123,-13083,1481,8240,1918,8449,-13468,-6558,4621
8123,-10393,951,7179,205,8234,-9542,-3582,3345
8123,2597,-2404,3177,-4197,13520,13907,823,1613
8123,1421,-2090,3270,-1542,13522,10229,-1233,2591
8123,-295,-1904,4973,-1532,13759,7917,2786,-12995
8123,-343,-2722,5360,-939,13751,7013,2562,-10546
8123,680,-2227,5272,-136,12770,4749,2129,-7137
8123,2494,1440,6719,967,8838,-5558,6659,6430
8123,-2,-2618,4226,-2488,11543,9692,7280,7036
8123,-4495,-897,5073,-734,11380,3638,1191,-3934
8172,-1160,460,5611,-2357,9771,11225,1474,-3084
8172,3022,45,4821,-2583,9754,12578,2568,-4787
8172,4212,3075,8608,2336,6806,-11508,1887,8811
8172,7505,3454,8044,2390,6651,-6018,2480,9561
8172,7246,4232,7978,2980,5514,-7099,3554,11452
8172,-14884,-873,6341,-5585,9926,9972,749,-19543
8172,-16198,-1228,6623,-5705,9971,7827,1130,-14063
8172,4373,378,6341,-2414,7909,8505,-994,-3506
8172,5320,1334,6266,-2338,6851,7523,1006,-6869
8172,-7225,-3739,7475,-4351,7465,17127,3473,-4819
8221,-7209,-429,9992,2053,4715,-4295,-9211,-6343
8221,-7680,-2392,7957,-551,7032,6548,-5878,-5175
8221,-1381,-1031,8769,258,7154,-1740,4053,6144
8221,-1894,-1123,8495,500,6710,-2454,3009,2486
8221,1091,-92,8158,1365,5278,-4411,156,-6161
8221,-4708,2685,12063,5368,4913,-4754,10282,-13617
8221,-822,2802,11202,3771,3531,-1097,4156,-14156
8221,-4923,-2574,9953,-15,7726,6055,11893,-4180
8221,-941,-1399,9340,-353,6516,5673,7969,-6133
8221,5400,-729,10863,-2113,6035,4680,437,-12524
8270,2326,2836,13244,270,-1560,2926,2346,-7305
8270,-797,1462,12470,144,-389,-2069,-1633,-4320
8270,-1557,-1720,9585,-1996,6229,13169,-9159,5516
8270,-653,-1428,9321,-1033,5882,9880,-6590,-1516
8270,180,-1013,9590,-160,5266,5927,-4056,-7971
8270,6270,-1082,10055,-1775,4252,8279,1205,-7310
8270,5082,-842,9722,-1208,3846,5650,1754,-5067
8270,-4573,20,13554,1634,2037,-10679,-7043,3117
8270,-3496,275,13045,1127,2202,-8474,-1023,3163
8270,387,-3545,11799,-807,6043,5612,463,-9694
8319,2229,542,12089,504,3554,-4632,-1258,-4372
8319,380,-1131,10411,-490,4677,1892,-6350,-2216
8319,-2348,-3908,10805,-2406,4519,12115,4882,-7699
8319,-15246,-4566,11063,-1963,4682,11178,4210,-7033
8319,-21974,-3910,11962,235,4300,5319,2746,-4207
8319,530,-750,9892,-656,5605,6587,-916,-6677
8319,-442,392,9401,124,5048,2911,-4849,-1044
8319,-2964,-3058,10882,-294,4414,8870,2533,-6331
8319,-3955,-3971,10240,-912,3377,8020,765,-4407
8319,1534,2557,12657,2216,1108,-6516,-3344,-3027
8368,-644,-473,11076,-1721,2512,10129,2813,-1873
8368,-4949,965,11749,489,1500,4044,2906,1143
8368,-3054,-884,9662,-1250,4226,16368,7477,-47
8368,8226,-1718,9699,-901,4390,6823,-5260,5951
8368,8267,-1812,9438,101,4071,2865,-6402,6809
8368,1064,-324,8416,-268,3250,2957,3336,-11615
8368,-3506,519,9080,1017,2662,703,6667,-9203
8368,-12734,-559,10022,-1674,6613,9060,4413,-1493
8368,-11130,-1591,9240,-1908,5311,11823,5363,-3781
8368,-5985,-2473,8816,-1046,4415,8909,4350,-5475
8417,-390,7367,12622,1835,652,-5339,6067,3730
8417,831,7128,10433,711,1114,-2004,2487,4464
8417,1314,6643,9390,3046,770,-14917,-1576,-1850
8417,2242,1782,11336,3990,1588,-7569,6018,-4635
8417,2927,-1669,8201,-865,4427,10710,7038,-9098
8417,-4943,-2953,6518,-1662,4314,7905,-9182,2246
8417,-1687,-2265,6467,-1281,4046,10096,4418,-3291
8417,6757,-603,6926,-1476,6351,8668,-2441,-3342
8417,3941,72,7429,23,3965,476,746,-5835
8417,345,2327,8583,3067,-477,-14821,858,-8495
8466,-5393,-457,8622,111,3494,-1140,-8735,-405
8466,-5477,-3879,6668,-2169,6101,14950,-5152,6282
8466,-4098,-3607,7243,211,5301,6753,-3323,11036
8466,-1561,-1738,6114,-1274,5809,2321,3479,-7078
8466,924,-1143,5569,-1271,5281,1998,2916,-7789
8466,23125,-1026,4768,-3965,3690,8486,4727,-16527
8466,19814,-2714,2290,-6096,4986,17417,4369,-15894
8466,9494,302,5760,1172,7266,-936,-1559,-17931
8466,5476,537,5250,1102,6555,-1596,-1638,-14542
8466,5454,1177,4866,171,4258,-2353,-617,-10305
8514,3921,3716,6816,1229,2154,-18161,-5027,13732
8514,2103,4208,6533,1802,2370,-17124,-8899,6807
8514,1286,3689,6032,1620,2877,-13666,-11065,-6728
8514,1415,-2115,3064,-3323,4992,15953,-9902,-5167
8514,4352,-5645,5049,-2639,5750,16332,7414,-6722
8514,1835,-5582,4549,-2968,4915,16250,8102,-8536
8514,1416,-4873,4340,-2517,4075,11606,5833,-11669
8514,-2545,-4924,2732,-4982,6981,24264,3136,-8830
8514,-5549,-4485,2860,-3097,6583,15994,-661,-7483
8514,-5426,-2714,4201,3576,6387,-11463,3492,-8016
8563,10215,3981,5208,2128,1710,-11679,-1974,-167
8563,12136,1139,3170,-1986,4280,2952,-479,-2160
8563,-422,-3841,6027,1640,2569,-10496,-2352,-14040
8563,-4958,-4361,5987,1437,2325,-7790,-2027,-7231
8563,1377,-136,2244,1484,7072,-523,-8592,-4064
8563,3981,400,2039,791,6268,-795,-6433,-5363
8563,296,329,2722,668,5673,-1708,-2010,-5715
8563,-13718,-453,2751,285,5853,2347,2254,-932
8563,-10781,622,2734,-216,5158,-137,2197,-512
8563,-3508,-5453,2714,-2671,6235,14645,-2032,-13110
8612,9209,46,2899,1626,4618,-2730,4357,-6671
8612,9124,-1436,1518,-731,5760,4287,2389,-9535
8612,-2387,-620,1769,-2161,4799,4351,2213,-3832
8612,-7936,-1897,2147,-1856,5222,5164,812,-6957
8612,-8002,-2010,2579,-1370,5051,5658,785,-6138
8612,-1913,2446,4617,295,2500,-4047,-9219,-8547
8612,-534,2629,4164,765,1857,-5092,-6662,-5373
8612,4517,-1606,804,-2093,5607,6444,1033,-2597
8612,6092,-51,296,-1499,4695,5032,-960,-8304
8612,-790,1335,827,-1528,5066,5493,3031,6617
8660,-3378,-961,4978,3963,3114,-17465,2832,-2656
8660,1069,544,5380,4779,1237,-22280,3998,-3681
8660,-3341,-5916,-921,-3455,7028,11030,-5025,-3280
8660,-1364,-3792,-256,-3677,6200,8766,-3631,578
8660,-2687,-11294,2364,-1652,5675,8063,2235,2605
8660,-3676,-9040,2133,-1704,5170,10335,1725,5362
8660,-3264,-5883,1627,-1400,4373,10876,1925,5499
8660,-4470,3453,3705,2930,2619,-15979,12570,-980
8660,-4276,2107,3357,2764,2472,-13556,14810,-1287
8660,-8852,-2855,627,-1217,5889,865,-4814,3757
8709,4428,-1019,-876,-1832,4972,11303,-6520,-2329
8709,5970,-277,-554,-1559,4040,10671,4755,-4175
8709,3936,-1343,1583,-242,5662,717,2197,-3298
8709,4557,-3090,1979,563,5768,-233,-251,-3882
8709,6354,-3413,2341,1106,5088,-1354,-683,-3760
8709,-6335,-3406,133,-2453,6276,12829,4421,-3921
8709,-3227,-2399,90,-1442,5236,5634,-2807,-3808
8709,4990,290,190,-960,5425,5752,-5035,-6601
8709,4217,676,418,-102,4852,964,234,-1152
8709,-761,112,2802,1946,2282,-12377,-2001,3851
8757,3390,-716,1762,452,3884,-3916,807,-2172
8757,4995,-2570,114,-1524,5070,6733,3779,-14873
8757,3397,1380,-1502,-1169,4465,4351,3752,-2531
8757,5310,2105,-1480,-670,4105,5301,8629,-2984
8757,-5366,-2542,1435,116,5995,361,627,-3381
8757,-4512,-3288,1533,-188,5358,-2683,-1946,-1135
8757,-2801,-3884,1617,-127,4570,-3161,-1179,-244
8757,-2988,-2747,-664,-1544,7081,5854,-1612,5925
8757,-1350,-1582,-330,-1287,6491,6583,-1823,5708
8757,4512,-975,46,-1414,4687,9158,-153,-4018
8806,2514,8805,1708,2335,521,-15906,1166,4190
8806,3996,6703,-180,-623,3043,1397,4905,-891
8806,624,2898,2767,2422,41,-14848,2923,-10983
8806,-403,-607,290,-1531,3172,1511,5919,-10995
8806,-14205,-5934,-349,-1582,5375,5425,-7053,102
8806,-6709,-5581,-250,-1157,5111,4473,-2938,846
8806,-557,-4253,-262,-742,4475,3526,1495,-470
8806,-2481,3878,-1188,636,4363,-4500,-160,-2188
8806,1400,6081,-1563,-137,3718,-4836,-1852,-443
8806,-5535,-5941,522,-2425,5509,5451,1173,2624
8902,-2834,-3002,3152,3267,498,-18091,-2693,3316
8902,-1686,-1040,3169,4013,429,-22377,1237,-81
8902,4668,-204,-2194,-2408,6054,16323,8191,4913
8902,3354,-342,-2000,-2593,5468,14252,5837,3291
8902,5428,472,-1201,-537,4932,5011,6515,-13701
8902,5643,2091,-1483,-132,4251,4366,6123,-10288
8902,5135,3114,-1273,303,3511,2473,5897,-5163
8902,-2128,-5502,3015,3184,2381,-12124,-745,3417
8902,1733,-5306,2051,1172,1884,-7302,1706,321
8902,-16807,766,94,-284,5904,-4217,-2060,6986
8951,653,-3898,1688,2735,3554,-12927,-21722,2650
8951,-885,-5548,-194,-1952,3996,3639,-16860,3197
8951,-5017,3825,1966,2096,110,-18428,-1567,-5262
8951,-3566,3042,1895,2290,1098,-14936,-1189,-4880
8951,3362,-2360,-2682,-2372,4742,5211,-3932,-6060
8951,2083,-1348,-2556,-2650,4084,8037,959,-6745
8951,3276,-461,-1881,-1571,3574,6859,6030,-6845
8951,5810,-2040,-1618,-77,5310,-848,-1205,-8872
8951,2492,-3033,-1257,719,4345,-2077,-383,-12013
8951,-3428,-4017,2760,1424,1708,-12566,-1576,234
9000,6315,6835,1079,984,1515,-6421,-6982,-6990
9000,3361,4258,-732,-843,3650,-3604,-6420,-7147
9000,-3763,-911,-1676,-1952,4883,9322,-1369,6213
9000,-5969,-1039,-1273,-1103,4480,5644,314,5446
9000,-4391,893,2579,3973,2003,-14976,1500,-3316
9000,-2126,222,1756,2271,2243,-11242,1771,-1785
9000,1062,499,1352,1275,1576,-7893,2904,-2752
9000,4794,572,-1950,-449,6808,6254,11806,11601
9000,3257,1087,-1720,-1418,5700,6877,10711,17600
9000,-2594,-3227,-1297,-1165,4442,3527,-894,-4907
9049,4744,2117,1742,2591,746,-13302,-174,-9282
9049,8015,1299,473,1347,1564,-7308,917,-13040
9049,-4715,-1913,-900,-3451,2327,4550,-420,183
9049,-2673,-5459,-2338,-5190,5886,17942,1150,-1239
9049,864,-127,-2449,-2052,4858,15369,-1830,-2536
9049,3087,-27,-1893,-436,5224,8191,-1634,-3436
9049,3936,695,-1395,804,4712,2061,-2916,-3689
9049,2714,-5264,3072,2599,2462,-10718,4932,-5890
9049,1598,-3537,2792,1127,1653,-6866,2000,-6266
9049,-5561,-5270,-1989,-2138,3243,1829,-4094,-2707
9097,969,4486,-1048,459,540,-7916,-1084,9344
9097,1895,3878,-1539,-1238,977,-4302,-518,8392
9097,-22188,-7290,-175,-54,5972,-811,-7244,524
9097,-19507,-6862,91,-816,5374,293,-5722,7948
9097,-2198,-5245,-2305,-2523,4701,8118,4282,-2890
9097,168,-4392,-1863,-2001,4181,5764,2716,1097
9097,5661,684,-3567,-1868,3791,7663,10484,-3692
9097,5167,-949,-2877,-820,4174,6291,11433,-2170
9097,-138,2864,954,2513,1454,-11832,-3135,777
9097,1101,2792,739,2151,1065,-10902,-459,-1315
9145,-8026,-2688,1299,1045,2197,-1343,-14673,1998
9145,4135,1395,-3199,-2705,4456,10289,2511,-1872
9145,3105,2211,-2976,-2274,4249,6932,995,-399
9145,3140,4101,-2377,-1223,3353,-1051,603,-4391
9145,-1119,-409,-1909,-1528,4737,11101,-2452,219
9145,194,546,-2020,-1605,3819,9755,-8541,2196
9145,412,6147,993,2597,-776,-17637,-3773,4157
9145,1822,5370,1422,3047,-822,-20113,2438,780
9145,7287,-1808,-3712,-2553,2844,4026,2981,-2022
9145,5000,-1095,-3080,-1734,3065,2941,2386,2220
9194,3560,1563,-3319,-3055,3963,5134,5074,-6517
9194,-8147,-3983,2698,263,3083,-7009,-40,-4720
9194,-6309,-2673,1474,-2194,2203,844,-125,-3716
9194,-4707,-1238,775,-1761,1643,5451,-2258,-1689
9194,2275,-2195,-2945,-2452,4875,6264,3373,-3982
9194,4667,-1766,-2757,-2249,4258,8039,3854,-5938
9194,7430,3215,-3200,-1693,4637,8068,5829,-5035
9194,2066,2397,-2648,-1046,4375,6936,7558,-9555
9194,-6855,-2586,-2867,-2320,4596,16947,-679,-11943
9194,-8141,-2847,-2016,-2076,4438,10523,4754,-6773
9243,5979,-216,341,1964,263,-10750,2598,-8923
9243,1464,-123,-1895,-2286,4437,4881,5955,-532
9243,2754,-3759,-1267,-1657,4464,3303,692,897
9243,3266,-6034,-548,-111,4168,-612,-3062,764
9243,-5903,-1268,136,330,1144,-5304,-4338,1970
9243,-5735,-1072,195,1110,917,-10359,-4959,693
9243,-689,-2561,-1599,-1203,4353,6608,1363,-6263
9243,1059,-2627,-1215,-537,4672,2875,938,-7117
9243,1796,1951,-2422,35,5607,-6224,-4015,-1126
9243,-3698,1746,-1890,1513,5455,-13311,-7145,-2779
9292,7605,5414,1285,2985,-541,-12093,5807,-3762
9292,1520,1023,1535,2124,664,-9106,6440,-5571
9292,-3523,-2820,-1712,-540,5777,4212,-2733,-416
9292,-1040,-2776,-1717,-588,5126,1558,-431,2319
9292,722,-8806,-1549,-2550,2471,8403,-3827,-7763
9292,1636,-7403,-1375,-2049,2284,8426,-2187,-6942
9292,-6500,757,594,1839,1606,-7625,788,5932
9292,-7129,550,675,2459,912,-8494,-6951,5808
9292,-7614,1340,1675,2398,-75,-11024,-13891,7737
9292,-6307,-6223,-811,-1357,4106,1509,3267,1267
9341,-248,828,646,1499,-21,-5370,-1527,948
9341,-752,-1265,-1472,-2293,1494,3622,-187,2233
9341,-3699,-5045,1124,481,170,-6463,-2318,5785
9341,-4,-4316,1896,1150,75,-10750,2022,4204
9341,3293,-2541,-3363,-3391,3079,9752,1247,-3058
9341,6695,-993,-3299,-2779,2224,5077,936,-1318
9341,744,-9976,91,-794,5526,5796,2792,-8548
9341,-3150,-10246,581,-189,5346,4490,2877,-5910
9341,-3151,-8806,931,1077,4645,355,1746,-3845
9341,3293,434,73,88,921,-10011,1173,-1786
9390,-1213,165,-738,-256,2243,-458,10203,-311
9390,-155,-1114,-1773,-1181,3910,7735,8397,-2243
9390,-5789,-2560,-1061,-6,3224,2608,-3188,2550
9390,-2445,-1975,-991,-930,3364,1890,-3637,-3374
9390,8475,1805,1604,2594,578,-14275,3060,-1111
9390,8391,1790,1321,1230,677,-1947,5933,-5467
9390,-462,19,-1736,-2577,4725,6054,-5753,-3861
9390,3001,-490,-2613,-2335,3602,5406,-2866,-2223
9390,5226,-1048,-2271,-1137,2644,4472,1009,-3375
9390,6341,2056,-2096,-2368,3120,2197,-3594,-5329
9439,8226,10629,-510,465,-1490,-13322,-10015,753
9439,5689,8717,-499,185,-107,-12904,-4554,-76
9439,-6506,-4545,1282,172,2730,-5745,-1883,-2266
9439,-3429,-6855,-1463,-3120,4845,12451,3700,-2877
9439,4254,-3037,-210,-370,4987,-70,-3120,1260
9439,6254,-2251,-610,14,4837,-474,-3499,-1120
9439,-3293,3900,871,1808,1442,-9509,3956,2171
9439,-5331,3035,579,1120,1178,-6902,6123,3473
9439,-4320,2553,816,1864,408,-9516,4501,6323
9439,1748,656,-2019,-2235,4509,9068,4342,-6083
9488,86,3325,801,3271,1436,-8279,-458,-3431
9488,3088,-525,-1090,-664,1559,2888,2458,-4601
9488,3971,4166,-1969,-2083,3671,4553,-11330,2081
9488,2682,2707,-1247,-1517,3652,3763,-13736,-1181
9488,6988,-5397,-2656,-5500,5928,19423,7873,-15820
9488,-3648,-4887,-1964,-4164,4586,12937,5328,-8283
9488,-9287,-4072,-1182,-2531,2897,5123,902,2072
9488,5136,-811,-829,-1057,3669,10680,958,-6718
9488,3569,-504,79,-390,3488,8842,-7468,-2317
9488,-110,3000,973,813,287,-18883,-3426,4035
9536,-12576,-904,1249,292,1102,3964,3032,16936
9536,-8995,-5,1631,702,185,-3094,-846,15927
9536,-8921,-2011,-1442,-1291,3096,3892,7055,-726
9536,-5578,-1111,-1067,-857,3457,1558,5058,945
9536,-540,-2631,-792,-613,3882,2012,1058,-6863
9536,5470,-1166,-965,-1158,3033,5011,437,-2789
9536,3969,-291,-2560,-2715,4647,14152,3141,-1220
9536,3320,-2720,-3239,-3662,5524,18549,4378,-769
9536,848,-2406,-2564,-2274,3798,8532,3042,-226
9536,-2519,-7268,467,-82,3589,-4703,-2915,-3337
9585,2476,-427,1341,-724,-447,-7283,-4145,-1819
9585,3275,-2796,-606,-2816,1882,3359,-4148,-3572
9585,-2364,4032,110,925,-353,-14507,-4,1115
9585,-3286,5350,2520,3616,-4385,-28455,-3164,4413
9585,-694,-6009,-514,-989,5543,5144,-821,-3660
9585,-4236,-6392,-146,-256,5422,4232,55,2658
9585,-7604,-5433,8,-614,3844,2422,467,9489
9585,-2531,1711,-1161,425,4525,9639,-6077,6620
9585,-1730,3375,-997,989,4033,5445,-7531,-27
9585,-829,-9155,416,-3076,3166,6054,-2838,-272
9634,9363,465,-1231,-2204,2222,5008,10728,1513
9634,4179,-1068,-1407,-2345,3183,6161,5685,2022
9634,-54,2400,-2025,-2947,2302,8210,4765,-223
9634,741,2123,-1792,-2027,2047,2359,5315,-1134
9634,1331,7768,3600,5219,-2898,-26126,-7842,-3826
9634,1714,5948,3106,4173,-2771,-23602,-4325,-2327
9634,-4983,-4897,-1742,-2552,2948,8185,1110,215
9634,-5831,-4458,-1624,-1912,2340,712,-1067,2446
9634,148,-2111,-961,-705,4233,2169,2788,-6915
9634,1454,-1917,-979,-338,4027,-390,1254,-4893
9682,9870,2624,1770,2894,272,-16789,-2627,6503
9682,-1575,591,-2177,-1125,5209,2264,2666,-3191
9682,2593,1119,-2504,-1547,3276,4138,4537,-4695
9682,2776,1780,-2614,-76,975,805,3754,-5127
9682,-747,-141,-1488,-3449,2781,5615,-13783,976
9682,1437,-394,-1635,-3582,1906,5202,-7555,-315
9682,-5517,-5542,331,-174,346,-4614,-639,4744
9682,-7657,-6110,360,-106,517,-5490,-2503,1070
9682,-2235,1120,-1919,-2304,3137,1602,4498,-9250
9682,-3337,473,-1442,-1535,2679,1174,4778,-10073
9740,1716,-4345,8,-1032,2627,2621,367,-2788
9740,6435,1753,-2156,-2635,2287,1950,1067,-1287
9740,5267,1782,-2305,-2419,1629,1871,1398,-3185
9740,-2428,-1629,-1415,-2898,4554,11553,-420,-6162
9740,-1454,-822,-1501,-2798,3547,10880,2082,-3031
9740,-1350,-669,-1057,-1368,2904,4962,2367,287
9740,-2799,294,-1592,-2084,2778,10875,-5689,-358
9740,-887,1104,-1594,-2359,1859,5774,1023,-3290
9740,3810,-788,1392,336,851,-14370,-4316,-6705
9740,1304,-1162,1327,-242,2325,-10187,1670,-4747
9789,2986,1359,1128,2477,1913,-8594,-2575,2019
9789,4327,1120,609,1650,2813,-3490,-2153,509
9789,6402,-354,-931,86,4839,8052,-944,-1202
9789,-511,-9487,487,725,4641,-321,517,1331
9789,-3272,-8318,823,328,4376,485,575,6009
9789,-6563,-3818,-439,-1883,5085,4684,425,-3732
9789,-8930,-4270,3,-1871,5288,3827,-1918,-124
9789,-7154,-3778,-46,-1915,4330,2836,-2608,612
9789,-3069,2801,-1090,660,3047,-2892,-3754,3730
9789,-1635,2971,-347,743,2495,-2990,-908,3467
9837,7139,5928,1575,3015,-3840,-23482,-26658,7501
9837,8248,2009,-1230,-2942,199,-1600,-16295,-7717
9837,6822,282,-2541,-4482,2476,6378,-4840,-19100
9837,-8132,-2772,-954,-846,3009,4163,-4384,4826
9837,-4209,-1827,-858,-942,2333,851,-4153,284
9837,2789,1234,-818,687,3041,-3436,5270,-5175
9837,1650,43,-835,1938,3240,-5378,2162,-3842
9837,2841,-1033,-723,2055,2252,-5950,1824,-1211
9837,4824,-545,-1688,-3222,5155,8391,2615,837
9837,3368,-1138,-1440,-1584,4720,5067,104,2254
9885,-12618,17,1763,2934,-64,-13847,1396,4099
9885,-10173,1227,1634,2166,124,-10971,1279,2395
9885,-5424,-77,-237,-980,1697,2216,1988,76
9885,-3829,6643,3235,3632,-3389,-21473,-4956,3121
9885,-62,5179,3145,2156,-3088,-12776,-10111,5203
9885,3574,2176,-3439,-4051,2274,8335,3162,-3762
9885,6058,2548,-3334,-2795,1965,3400,-527,-6048
9885,-974,1076,-1566,-1316,1439,-726,1905,1289
9885,389,764,-1722,-1673,1421,-494,536,3034
9885,1396,-109,-910,-1372,2005,-1594,36,2469
9934,-3420,-3088,-659,-1751,3325,-1120,309,-235
9934,-2797,-4405,-754,-1412,3145,250,382,-1443
9934,-124,-2046,1716,2836,-134,-14824,-67,-3431
9934,-4505,407,-1272,-461,3126,8940,15680,-8118
9934,-8903,-675,-780,297,3795,6847,10669,-7553
9934,5306,7401,2490,3838,-2984,-23937,687,-15009
9934,4069,4387,1022,1625,-814,-10830,2878,-12926
9934,4108,5932,3145,4770,-2466,-20819,2667,-7963
9934,5872,-346,-3604,-130,4672,12749,-20111,3477
9934,6147,867,-3263,-1280,3626,14655,-16504,1100
9982,-4768,-4332,1378,1224,2866,-2291,3199,3211
9982,-4038,-901,3373,4076,436,-14964,2915,2627
9982,-2468,-44,3061,3327,140,-12984,6655,378
9982,3461,-2273,-2388,-4380,3710,11402,3956,1214
9982,5122,-3444,-1941,-3741,2350,9769,5831,-3584
9982,257,-4294,-980,-1155,2679,6880,4279,636
9982,1387,-2365,-2112,-2648,425,6493,3803,352
9982,-8761,6429,727,1561,2719,-6832,5919,-10621
9982,-7738,9777,2306,5689,-286,-22431,1574,-7470
9982,-3939,9432,2312,5162,-977,-22375,-1419,-3747
10031,12760,-3779,-2263,-3795,1545,9900,7943,-4478
10031,7116,-4930,-2739,-4273,2908,15803,7388,-2768
10031,1067,-2367,-588,-637,1322,3145,2861,-95
10031,-3789,-5479,2177,2304,1532,-11114,7511,-3798
10031,-6260,-6103,2264,1857,1254,-10113,3016,-1628
10031,14622,3521,-3867,-4905,3162,15414,12240,-15615
10031,13165,3382,-3685,-4011,2932,13424,9522,-16146
10031,10076,2658,-2814,-2318,2449,7846,2530,-10280
10031,-6416,-3716,-702,-1796,3789,12176,-2095,579
10031,-5806,-3488,-681,-1353,3543,10848,-2420,77
10080,-1864,2276,59,906,-672,-7236,4395,4312
10080,-3690,251,-1659,-1140,2737,3406,4923,2396
10080,-6936,1954,-1336,913,3389,-986,1117,3118
10080,-4840,-3211,-1620,-3593,2434,5786,-3182,7445
10080,-7179,-3436,-1588,-4109,2293,6912,-3303,8797
10080,-3492,-1014,1188,945,110,-11135,-4516,7641
10080,-429,-260,1163,1068,102,-11286,-3614,7807
10080,662,1063,1403,1755,-250,-11865,-4008,4869
10080,-5530,-7551,-2017,-3654,2488,10434,-600,702
10080,-5466,-7344,-1254,-1998,2817,5917,6552,-1103
10129,6330,7448,922,1386,-792,1360,-5478,-788
10129,6074,7196,105,-590,7,8049,-7155,3491
10129,4190,7030,308,120,-119,-24,-8027,4365
10129,-2958,-8999,-2100,-3487,4870,18026,3352,1003
10129,-2328,-7748,-1779,-3434,4522,17991,4501,2116
10129,-7721,3715,-2664,-706,4627,8785,5381,5047
10129,-6039,3216,-2324,-1679,4550,8724,2348,8368
10129,-3692,2244,-1970,-2058,3780,6697,-631,10358
10129,142,-2195,1386,1032,-2214,-11159,-9835,4374
10129,-2337,-2477,1792,4516,-1752,-13114,-6803,9669
10178,-8369,-5916,2263,2129,1210,-11549,-16906,8938
10178,-4023,-6545,441,54,3389,432,-12819,6353
10178,-744,-2940,964,256,2965,-2747,-6389,4148
10178,5908,-4629,-768,-1004,4319,4163,4349,2287
10178,11450,-4043,-946,-1417,3424,4138,4921,-2912
10178,4520,-1202,-2984,-3669,3290,11483,4083,-2038
10178,5676,-545,-3191,-3215,2594,10774,3681,-2042
10178,4929,34,-2834,-3048,2406,9671,2444,-1801
10178,-1812,-747,0,-1350,3340,2713,2211,-97
10178,-2787,-1061,209,-584,3592,856,319,3600
10226,2216,2896,304,96,278,-6938,2434,-344
10226,2165,3286,902,1399,-369,-11746,-169,436
10226,715,250,226,549,1657,-6456,-2766,2243
10226,7216,-2434,-1529,-599,2635,1040,-508,-3299
10226,8051,-1000,-1597,-239,2092,-2306,-3228,-1472
10226,10,-902,-781,-1825,3439,8923,12036,3743
10226,843,228,-797,-2142,3220,6650,12652,2517
10226,1776,1164,-126,-455,3106,-771,4719,-624
10226,-2934,-5387,-1809,-3012,2829,9892,1118,-676
10226,775,-3991,-1756,-2093,1583,7251,2012,-2535
10275,2445,4926,446,1481,-1662,-11176,-9882,-22
10275,-6838,-988,-430,-1173,1930,2625,-7475,5295
10275,-8437,-3531,-153,-657,2830,4408,-4542,7415
10275,14,3284,2966,6116,-2427,-29693,-8964,825
10275,-1735,1559,1995,4059,-924,-14765,-477,-1002
10275,1757,4153,-2282,-136,4671,6189,2585,-2082
10275,-1024,1943,-1997,-1201,3924,11317,3002,-2348
10275,-909,237,-2039,-1230,2634,6757,1532,-5176
10275,118,-3516,-1050,-1864,3696,10241,-632,-994
10275,899,-2691,-1191,-1175,3192,5700,-1726,-1645
10324,769,-1552,-834,1659,2151,-5840,-1061,-3390
10324,1156,-2144,-1884,-176,3068,1608,-545,-3858
10324,3048,1071,-410,1665,736,-7631,-577,-2037
10324,-1897,-6059,675,-1482,3718,1726,2251,3542
10324,-2623,-6302,1088,-1811,3673,-1634,2141,2181
10324,-5176,9630,3097,3455,-2803,-17643,-3969,686
10324,-4497,8598,1689,1340,-1046,-13856,-4489,-5127
10324,-3239,9533,2226,3859,-1073,-22915,-6928,-9330
10324,-4313,-3443,-1197,-1555,3838,4504,-2406,4887
10324,-959,-2830,-1192,-1887,3024,10359,3199,1888
10372,4047,-247,358,3053,746,-11165,1438,-2851
10372,1639,911,1424,3985,-764,-20255,-3284,-51
10372,-1706,1129,1231,2723,-864,-19465,-6755,969
10372,3566,-4101,-3059,-4772,2988,17236,-11893,-6071
10372,1784,-4683,-2746,-5264,2001,11887,-9243,-7473
10372,-803,-2033,-2513,-1544,2681,7159,6865,-1257
10372,1005,-3338,-2273,-1499,2187,5515,7056,-2586
10372,2041,-3490,-1692,-1353,1833,3334,6473,-2649
10372,-9391,-164,867,1,535,-3122,961,6843
10372,-14301,-1494,907,-669,1009,1174,-3811,6277
10420,2878,-6464,-1593,-1389,3227,5948,7452,-7264
10420,2012,-3529,373,2662,1071,-7317,-3880,-3063
10420,2108,-3520,-29,1499,544,-6568,-11289,1426
10420,4605,-934,-1180,-533,581,-4599,-3472,-9005
10420,1581,367,1604,3171,-1890,-20946,-6662,-4769
10420,7232,-3449,-2227,-2795,3864,12728,3295,-3489
10420,2318,-4375,-1780,-2740,3698,12542,8532,-1570
10420,-1903,-1459,-1697,-3080,2513,13392,6333,3024
10420,1,-2276,-1402,-2908,2854,10309,3027,4429
10420,2775,-2114,-929,-2074,2601,7395,2134,3675
10469,-1493,-504,189,1966,2768,-6084,-1205,374
10469,-3753,-2442,-1118,747,3522,-6361,-1503,2835
10469,-3328,1889,921,3609,-304,-21083,-676,5023
10469,-6624,-587,-414,-1071,3780,6507,12980,-5611
10469,-4097,-129,-693,-2005,2987,9158,12121,-3907
10469,-5881,2375,1266,1805,1758,-5348,-5958,586
10469,-253,5211,2176,5890,-1658,-19584,-8096,-832
10469,3662,4824,1562,4895,-2072,-17285,-7638,-3568
10469,-2645,-2139,-1021,-2491,4056,12468,1728,628
10469,-2768,-1796,-750,-855,4051,6133,1376,1676
10518,-3938,360,2885,3754,348,-14237,-1361,1737
10518,-1187,-1310,2850,3222,-218,-14581,-420,383
10518,2500,-3062,2157,975,-465,-8856,4483,316
10518,998,1416,-1794,-3435,4457,13489,1132,-544
10518,1298,653,-3043,-4044,6332,20542,4456,-2107
10518,1562,-1308,-1735,-1618,3104,3875,2112,-6386
10518,3323,-959,-1499,-1363,2667,4747,2001,-5595
10518,7239,2031,-776,-456,-149,-1733,1034,1039
10518,5148,3230,821,1281,-959,-8528,1547,3553
10518,-5326,1246,-1681,-2298,3739,9204,453,448
10567,5867,-3224,905,92,523,-7107,-4400,-2656
10567,3987,-5767,-53,-2914,3275,3381,-2328,-1185
10567,761,-4253,484,-1453,2260,2928,1800,-921
10567,-5646,1955,-826,-461,3471,4469,7641,1009
10567,-5823,736,-731,-136,3281,4846,5971,1243
10567,-1138,-3900,-2943,-5301,2676,19940,-7004,-414
10567,-5066,-3601,-2213,-3717,2390,14706,-10279,2741
10567,1922,-2633,-203,-1989,2552,4908,8648,-1646
10567,3535,-2189,-425,-2160,2034,6293,6238,-1425
10567,-869,4251,1092,2248,-517,-9489,1356,-5148
10615,-74,-2715,1777,-27,-680,-10690,25,-7475
10615,2655,-2726,1439,-178,282,-8441,102,-6907
10615,-3011,5652,-1768,-285,4089,7083,3599,-4018
10615,-4767,4089,-1425,309,3772,4409,2267,-1834
10615,-7465,2112,-1121,425,2461,266,816,623
10615,4495,-248,-615,-1890,105,9278,1764,3544
10615,2645,-731,-671,-461,-364,3748,-1127,4447
10615,3047,2763,-2650,-3392,4002,13465,-3559,-3776
10615,-229,3370,-2168,-2304,3338,6574,-5397,-1766
10615,-963,-1604,-268,-533,3155,1504,1584,-129
10664,-951,-947,-943,-1990,1607,11998,-1899,-398
10664,-168,-1028,-1227,-2099,1919,14462,3398,-1906
10664,-3858,-914,1106,728,-1022,-10323,-950,-48
10664,-8560,-2676,1996,686,-237,-8842,-2045,186
10664,-5320,543,3566,3675,-1664,-18387,-2876,1193
10664,2485,537,-2978,-2146,2262,8071,-422,-13324
10664,269,-296,-2907,-2964,972,7837,2803,-10204
10664,-1548,3288,-716,-1531,1283,2920,2524,242
10664,268,3988,-627,-944,1394,-4687,-961,-354
10664,8082,-2477,-1904,-778,4761,3760,-7829,-676
10713,5708,2753,701,2035,-300,-7853,-1234,-912
10713,2683,938,-84,896,1520,-3197,-1875,-1423
10713,7859,847,-353,1800,1221,-5851,1122,-5774
10713,1174,-4812,63,-668,3035,-988,-393,-5890
10713,2188,-3770,380,-14,3247,-1944,-289,-3748
10713,-748,2915,117,1105,-130,-6107,4239,-1447
10713,-1544,7982,2141,5032,-2333,-23375,699,-86
10713,13943,-1718,-2568,-1741,3442,8645,4066,-8891
10713,15316,-268,-2514,-2646,2327,7982,5433,-9444
10713,10818,334,-1622,-2765,1728,5224,5233,-6816
10762,-2361,7186,2051,5194,158,-20324,5352,-894
10762,1342,6186,1216,3246,177,-14758,4292,-1747
10762,4889,5999,50,2229,467,-10678,1565,-4395
10762,-2346,-5053,-2209,-1838,3664,8216,4705,-3615
10762,-5714,-3866,-1979,-2190,3472,10950,4012,-1630
10762,-4423,-2820,-1677,-1321,3377,1918,1739,-4752
10762,-4892,-2163,-1437,-1529,2957,3413,1551,-3162
10762,-1818,-939,1780,2152,2505,-7114,-1307,-509
10762,-1085,206,2370,2924,1849,-10579,-929,-348
10762,1380,-1512,177,-45,2944,-60,798,-1891
10811,-7244,-1752,-1126,-1472,1167,4554,3367,3880
10811,-6366,-2892,-1932,-2334,1580,9717,3190,4832
10811,-4257,-459,-30,851,-962,-1909,793,4796
10811,3522,-1891,1771,2684,-1495,-12863,2517,-5114
10811,3253,-466,1228,2361,-791,-8794,2604,-1919
10811,-5373,-6278,-1370,-2635,3324,11037,-1371,3977
10811,-1384,-5136,-1319,-2658,2605,9235,-1785,64
10811,1139,-936,-1921,-3020,1721,13435,-1813,2287
10811,-2592,-1560,-1622,-2363,2391,14799,745,3340
10811,-4598,-2053,-1012,-885,3171,11516,242,1804
10860,1055,-739,654,802,1099,-6050,-1868,2508
10860,1740,-3086,-1057,-2256,2650,6466,228,964
10860,1032,-1087,-647,-1197,735,1531,1369,125
10860,-2234,-3559,-1137,-896,2580,2311,-1633,4261
10860,-1293,-2351,-950,-681,2547,2558,-176,1541
10860,-260,532,896,367,-2112,-4896,-4467,-1815
10860,-1432,1138,626,189,-2251,-3573,-7759,-1443
10860,2847,681,-1954,-2067,3529,6106,1621,-4880
10860,3651,2141,-1893,-740,3365,5651,2914,-7521
10860,1565,3116,-1355,495,2613,3400,4239,-6699
10909,14751,4001,675,59,-3446,-11583,2909,-16962
10909,10048,2383,463,-225,-2020,-10650,-2096,-13614
10909,3651,2660,1066,2128,-1606,-18490,-6444,-8549
10909,-3371,-1070,-1762,-1242,3994,6494,5248,503
10909,-3502,645,-1761,-1953,3016,10622,4445,-1631
10909,-4787,-376,-903,-492,2938,-2106,-8494,2179
10909,-4414,-1445,-686,-864,3003,545,-12774,2330
10909,-3223,-1694,-498,-753,2552,6697,-10774,2034
10909,-9646,-3978,2017,2023,26,-11714,4822,1964
10909,-7318,-3426,1874,1818,-90,-11482,2170,2006
10958,5106,7295,95,3010,-404,-11982,4162,-550
10958,3473,4982,-1074,929,-83,-4282,3063,-1962
10958,1626,2325,-1085,497,559,1321,-2631,2281
10958,-1300,-1363,-1219,83,2553,-1726,-501,26750
10958,-358,-1246,-624,-585,2620,67,1735,26247
10958,-486,-6591,-826,-2599,4046,14310,3985,-2996
10958,1970,-4791,-625,-2106,3691,14019,4251,-5230
10958,4844,-2781,-656,-1445,2361,8924,4911,-5320
10958,1757,-1091,-344,249,4327,2217,-3003,1032
10958,2838,-566,-62,699,3681,673,417,2209
11006,5681,3401,403,-177,-826,-7219,1959,9273
11006,3985,2975,693,-68,-2450,-8718,2240,3942
11006,2861,-371,-562,-2105,-1278,55,2365,-2485
11006,2003,2306,160,-960,5760,8119,660,-3716
11006,850,1582,66,-1325,4614,8130,1627,-3442
11006,-1539,1821,-2116,-2189,976,6792,1523,-4731
11006,352,1609,-1699,-1373,763,2404,90,-4877
11006,-1370,-6908,-1191,-5231,2691,20030,3554,-2264
11006,-708,-7678,-162,-3981,2685,18827,712,-2039
11006,-1967,-7135,884,-2190,2327,9889,-3858,-2275
11055,-1251,3255,1317,3243,-1810,-17569,-2298,-2669
11055,-1114,-471,-512,202,913,-3305,302,-2842
11055,296,-1540,-367,296,774,-1933,4196,-2590
11055,-1407,3302,2814,5151,-3470,-20171,18,-4992
11055,2667,4009,2623,4715,-3565,-21212,-972,-5958
11055,-2674,-921,-1411,-958,3360,4849,-170,-3158
11055,-2189,290,-1183,-635,2658,3271,-390,-1582
11055,-2727,1497,-842,-22,1658,441,-1021,-671
11055,-2529,-5401,-763,-2322,1947,8997,4058,-5419
11055,-3695,-3897,-515,-1597,1624,6338,-154,-6620
11104,-2630,970,-1171,-93,1618,-992,-3222,-162
11104,-4105,-1754,-1678,-1214,2472,4083,-4295,781
11104,-3094,-604,386,2290,543,-8158,-6329,1144
11104,1999,1154,-1827,-566,2492,770,2594,-3549
11104,3494,1176,-1288,-425,3365,1852,580,-3894
11104,3150,2862,2641,5192,-3878,-24696,-1264,-3094
11104,530,3286,386,2118,-895,-11335,-576,-1405
11104,-1241,-4183,-1042,-2488,4796,6145,1161,-421
11104,-277,-2713,-1475,-1509,4940,4681,681,-2970
11104,1137,-1505,-1396,-715,3749,2356,264,-4948
11152,3349,708,777,2367,-1881,-10843,-6334,1936
11152,1410,1339,1828,3246,-2157,-16041,2256,1176
11152,-1015,-5415,-2870,-2279,2914,11197,-2252,1981
11152,-1195,-4321,-2676,-1533,2505,8735,3030,-1479
11152,-661,-2853,-1913,-366,2071,4733,5110,-3679
11152,1973,-1493,-2509,788,1600,700,-3833,-694
11152,1603,-714,-2290,-1626,1701,5137,-1104,-940
11152,1333,1993,206,3152,-735,-16250,1425,-802
11152,-322,1199,-380,1086,-392,-8825,4725,-1048
11152,5730,3220,-3438,-1023,1450,664,3641,-4032
11201,1539,3,-1842,-1841,-857,6289,-9418,2118
11201,267,65,-2511,-3417,-291,16527,-2851,7935
11201,-241,-1551,716,4311,-905,-24928,2644,-2718
11201,-1267,-834,929,2963,-311,-18304,6590,-2056
11201,-315,868,1001,2635,-495,-15069,5000,-1345
11201,-1631,209,-4110,-2672,1131,7720,961,-1290
11201,-534,677,-3765,-164,435,4063,-226,-1289
11201,1830,1530,-3571,-1777,1500,3486,-6765,267
11201,-334,1544,-3229,-2862,2833,7697,-366,-605
11201,-300,198,-1000,266,194,-2895,-2399,1637
11250,-3602,1231,-991,2176,-985,-7599,88,-3242
11250,-3410,-1902,-2666,-759,1130,4588,619,-1532
11250,-2364,-2804,-2698,-2377,2106,8015,1195,-242
11250,9212,1951,-4148,-2053,2061,6626,894,-1836
11250,10708,3090,-3901,-1627,947,3248,419,-2001
11250,-267,-3924,-437,1659,-84,-9905,439,-3107
11250,-487,-4448,-75,1796,150,-8842,449,-7717
11250,-1441,-638,-4404,-3218,2946,11499,3305,-204
11250,-1461,-509,-4480,-1686,2556,8888,2730,-102
11250,-632,-571,-3979,-638,1916,5868,2253,5
11393,1152,4684,-6,2761,773,-14432,-100,987
11393,-541,4687,-944,1555,1276,-9257,329,301
11393,2243,751,-4101,-2129,2641,8417,1397,-611
11393,1148,1825,-3679,-1701,2515,7546,406,-535
11393,-422,-6396,-2249,-1928,1226,3680,1239,806
11393,-1328,-4755,-1997,-1637,1474,3984,1517,625
11393,-21,-2710,-1996,-616,1472,2230,1513,438
11393,-3090,-2779,-283,600,-574,-5749,-127,1436
11393,-3531,-7073,-1984,-2775,2495,9387,1148,788
11393,979,-62,-2440,-770,1244,1404,1892,107
11442,-1479,5289,-1406,1975,-2539,-10811,-4296,2022
11442,718,1674,-3532,-1660,36,5351,-7149,2555
11442,1143,3488,-1136,2290,398,-10203,508,1502
11442,635,3018,-1021,2146,445,-9028,641,1353
11442,-905,-2195,-2893,-1367,4738,9897,-2828,2637
11442,1091,-1682,-2861,-980,4369,8744,-1777,2670
11442,983,-623,-2308,-550,3537,5871,838,1578
11442,2940,1025,-2706,998,3949,2122,4683,-3373
11442,3231,1618,-2603,1138,1628,621,3392,-3209
11442,-4073,-2859,-3807,-1383,3675,7316,3147,1031
11491,-4338,1715,-829,2666,514,-8737,-256,2907
11491,-3275,847,-1515,1012,762,-4931,245,2250
11491,-1552,2701,-2810,-765,3792,2579,991,1223
11491,-1504,2575,-2005,-880,3456,1370,666,855
11491,-718,5719,-1220,1660,-101,-10632,-379,2293
11491,710,5195,-1020,1813,478,-9917,-489,2325
11491,780,4797,-318,2374,365,-12043,-749,2497
11491,449,423,-3885,-2563,1077,7913,1823,774
11491,2055,1671,-3782,-1641,717,6583,1667,718
11491,2453,2877,-3046,-916,2823,3937,1528,201
11539,-1626,-64,148,3238,668,-11023,-94,2292
11539,-1296,1841,850,3006,-2004,-17131,-585,2237
11539,6150,4118,-1356,483,683,-5171,295,1625
11539,9057,-779,-4237,-4191,4825,16608,2511,-703
11539,-2981,-6409,-2601,-556,4318,5851,1366,-290
11539,-3364,-4973,-1936,-680,4204,5001,1560,-666
11539,-2173,-3677,-993,-289,4025,2843,1163,-217
11539,-657,2809,-933,1218,-1411,-9477,503,8221
11539,1943,3123,-812,1147,-1561,-9632,102,6941
11539,-152,889,-3030,-776,2776,6064,843,-1387
11587,17,4037,-1587,1632,-45,-5703,51,1804
11587,-1202,2909,-1656,635,66,-4448,84,1151
11587,-2359,-756,-3396,-650,2378,4610,1027,588
11587,-726,-644,-3180,-309,2355,3149,519,715
11587,2319,-809,-5718,-3878,4412,16932,-663,-292
11587,394,-791,-4968,-2772,3762,12486,-394,214
11587,-1659,-988,-2904,-1722,-116,4078,881,799
11587,-1006,-8,-3077,-877,-1111,3200,681,483
11587,-647,1160,-2271,-407,-816,689,644,529
11587,4074,7909,-797,2053,47,-12125,-503,727
11634,76,12438,207,3984,909,-14526,-1023,1826
11634,2013,-1243,-2993,-967,2350,6716,1482,1038
11634,738,-1515,-2406,-832,2968,6252,1417,1141
11634,840,-1166,-1779,-384,2417,3126,965,1526
11634,967,-299,-3099,-587,583,2751,605,232
11634,64,367,-2635,-236,88,1611,570,316
11634,28,3294,-1186,1531,-1405,-9395,817,5960
11634,285,-1525,-3306,-2697,2319,9662,2668,-1088
11634,2841,3384,-3568,-950,-495,3597,2469,-1550
11634,1698,3182,-3365,-1145,-258,3149,1873,374
11682,2512,-2012,-1014,1166,3982,-1117,-411,3514
11682,456,4480,-345,2970,-1984,-13570,-3018,1242
11682,978,4412,-1063,1914,-2158,-10423,-1848,1382
11682,2001,4545,-760,1849,-2533,-11215,-1270,1439
11682,424,243,-3742,-1659,2830,8805,1480,-15
11682,-125,-284,-3230,-1260,2928,7378,1289,254
11682,704,376,-1998,-1059,2438,3499,894,1020
11682,-402,476,-1540,-1228,3219,3457,1335,1112
11682,1608,1408,-4446,-2673,3609,10752,2115,278
11682,2982,827,-3912,-2004,4891,10532,2094,436
11731,1223,618,-2431,-159,-3009,-2449,758,941
11731,-657,1464,-4407,-202,-3262,3407,1033,1177
11731,-206,2208,-4032,-320,-3557,3123,1094,1082
11731,1371,3183,-3267,373,-3846,-60,912,1083
11731,800,591,2197,2019,2874,-10809,-123,1073
11731,602,475,2244,2068,3526,-10687,-134,739
11731,1064,2448,-3750,-2281,1110,7412,1693,771
11731,2763,1950,-3321,-2147,1175,6773,1703,-482
11731,-9055,-790,-1024,332,4712,2257,825,-244
11731,-10215,-279,-1011,1006,4383,336,-535,-362
11780,5641,2599,1661,4266,-1633,-17529,-598,1377
11780,-932,-4533,-2912,-1525,6472,12741,1889,682
11780,-1053,-4335,-2567,-885,5907,10257,1648,310
11780,463,-2682,-2198,-275,5335,7584,1389,613
11780,1973,-1227,-1127,-273,3032,3472,45,1787
11780,2300,-1009,-992,-510,2763,3140,-412,1699
11780,-805,3239,814,2356,-359,-11076,-271,1780
11780,287,3837,437,2298,-1722,-10857,-292,1650
11780,-1865,-2651,-1229,-262,4236,4150,866,987
11780,-1668,-2880,-932,-235,3924,4093,790,983
11829,1169,357,4,-130,2233,-1446,408,801
11829,-270,-1243,-797,-733,3663,4512,840,684
11829,4797,3285,-1030,-643,2525,2574,936,789
11829,4053,3898,-668,-387,2418,1722,804,788
11829,1264,-2914,-2734,-1277,3664,8967,1383,279
11829,1165,-2052,-2675,-780,1833,6968,960,327
11829,51,-35,-1219,-2113,1790,3459,1015,253
11829,-1148,210,-1006,-1428,1564,2498,1016,188
11829,-690,1698,-609,229,1244,-990,656,65
11829,-7748,922,1256,2600,-75,-12265,-1225,3089
11877,2793,2179,-919,-385,989,58,175,-518
11877,-1186,-1843,-1203,-39,3241,4552,984,1756
11877,-753,-1016,-1131,-317,2691,4295,1095,908
11877,-1347,388,-654,-5,1677,1149,813,-431
11877,1309,-173,-1058,1378,2470,-710,380,173
11877,2487,297,-912,659,2396,-186,519,755
11877,6591,1792,-2143,-842,4840,8178,837,-1237
11877,4760,3044,-1368,305,4953,5358,632,-695
11877,177,-3017,-302,595,3879,809,345,102
11877,-2307,-2516,-151,730,4471,532,307,456
11926,-1158,2593,-378,2253,-1615,-8786,-350,343
11926,320,8945,3670,6258,-1447,-27225,-2227,1218
11926,362,7578,3043,4755,-347,-21582,-1924,951
11926,1771,5749,1703,3011,1140,-12913,-1181,598
11926,-287,-1685,-3195,-1376,2595,8898,1482,-627
11926,1289,-1361,-2927,-877,1914,6444,942,-516
11926,-471,1614,-3393,-1142,486,4117,1036,-195
11926,-1604,2251,-3173,-801,460,3260,1038,-301
11926,-418,1507,-3419,-260,2027,6114,1344,-117
11926,-2092,-269,-2303,-300,2472,5659,1320,-3
11985,1466,1188,1021,4149,-49,-13119,-940,625
11985,92,-938,-1555,568,1039,-802,27,101
11985,617,-2626,-1197,-580,4153,5275,1316,520
11985,2317,4932,1805,6443,-597,-25860,-1963,2998
11985,2505,2312,1208,4269,2506,-17645,-1297,2423
11985,1670,1101,1261,3655,4343,-13878,-1070,1748
11985,-3170,-4746,-2342,-1685,4171,10816,1698,1215
11985,-1030,-2988,-2329,-934,3673,8627,1477,1052
11985,-168,-1428,-2856,-860,2673,5615,673,388
11985,27,-781,-2601,-458,1933,4132,692,760
12034,-1952,-697,-680,464,1184,-1715,206,1843
12034,-416,-3056,-1836,-1390,2671,7285,1001,1966
12034,-1468,-726,-718,709,1138,-665,402,1926
12034,570,-44,-2248,-1004,2963,5998,946,1144
12034,712,-1123,-2637,-851,1601,5472,932,1020
12034,2091,8356,1326,5086,-4129,-24908,-1671,2414
12034,1789,4877,187,2534,-2253,-14950,-1235,2132
12034,1739,4935,538,3610,-2752,-17286,-1420,2078
12034,1136,1249,-3872,-1813,2431,10132,1669,515
12034,796,-64,-3044,-1367,2005,7944,1395,678
12082,-744,2825,697,2046,3076,-6218,301,1556
12082,972,5160,974,3110,252,-14125,-408,1662
12082,193,5137,252,2506,-306,-12653,-498,1483
12082,-1094,-2094,-4136,-2334,2822,12385,1776,816
12082,497,-1871,-3514,-1994,2519,10369,1474,970
12082,1229,-1085,-2574,-978,5847,8693,1537,736
12082,1123,-925,-2453,-935,4477,7994,1187,895
12082,984,-182,-2204,-794,3002,6311,967,871
12082,-2614,1766,-1055,1516,-614,-6117,-506,2532
12082,-2132,-1428,-2759,-1270,1490,5833,518,1566
12131,1030,131,-3328,-1025,3083,5298,1051,-104
12131,1293,-48,-3314,-907,2614,5630,1488,-428
12131,2135,3525,-1293,2213,-1107,-9728,612,32
12131,3937,3582,-294,2423,1210,-11924,-413,-144
12131,4471,4053,-1644,1586,-47,-8499,-126,-339
12131,-1675,-444,-5332,-2308,776,10116,1653,2377
12131,-1085,97,-4824,-2232,288,8947,1433,2355
12131,-3032,1188,-4260,-1754,-17,6687,1167,2524
12131,523,-1785,-3500,-1338,1977,6561,1081,1895
12131,2083,-609,-3361,-1237,1306,5358,826,1902
12179,1663,-258,-3281,28,2140,-872,605,1959
12179,1291,1225,-2159,1715,154,-9366,-278,2147
12179,-154,-2368,-3489,-1142,2064,2489,624,1529
12179,-1212,-147,-3852,-1351,1559,5821,932,2058
12179,-1484,-446,-3660,-1006,635,4350,761,2068
12179,747,397,-1882,132,3966,-1191,778,1977
12179,680,3255,-104,3090,1054,-14019,-583,2488
12179,52,3384,110,2801,929,-13902,-947,2378
12179,1301,-1160,-4322,-2489,3294,9767,1486,1376
12179,1156,-880,-3643,-2103,3299,8205,1382,1348
12227,-208,217,-3858,970,957,-993,468,1807
12227,-1172,3112,-2261,3963,-2062,-13579,-803,2290
12227,-385,3215,-1917,2318,-1727,-12950,-663,2315
12227,-1735,4286,918,4002,1645,-17637,-1526,3367
12227,-2022,111,-1157,-253,6659,928,-113,2879
12227,284,-1264,-4784,-1049,3811,7886,946,282
12227,642,-1078,-4493,-1292,3156,6703,890,455
12227,2202,-1073,-3488,-1873,3175,6365,1948,-942
12227,1987,-574,-3618,-1637,2340,5435,1912,-696
12227,2077,1626,-2409,864,-268,-4693,771,634
12276,85,520,-2331,-541,4357,-623,-39,2121
12276,2137,-1100,-3714,-1520,2647,5287,691,1193
12276,2224,1276,-2712,238,-2518,-4918,517,624
12276,-889,-939,-3720,-2137,3951,6972,1406,1286
12276,311,-297,-3682,-1685,5360,5841,1134,1346
12276,-1738,-462,-2950,-1928,3424,3537,286,2066
12276,-120,-3382,-4318,-3343,4889,13106,1454,1439
12276,-3119,660,-5913,-1011,944,3971,949,1737
12276,-2812,-1388,-5359,-580,74,3083,785,1821
12276,-828,-2431,-4854,-295,-2792,131,547,1912
12324,-751,2907,-2325,1891,-479,-12193,-375,2062
12324,178,1950,-2314,1421,1383,-9352,-203,1974
12324,-871,1747,-1679,1681,2922,-9280,-293,2132
12324,1583,-1446,-4828,-791,2252,4253,550,1512
12324,1479,-1190,-4537,-386,1399,2763,486,1319
12324,2372,146,-5550,-1932,1295,4824,1278,1092
12324,1161,514,-5104,-1691,1342,4580,1086,1527
12324,1259,-2803,-3194,-1077,4901,4400,788,2232
12324,98,-1632,-2901,-696,4532,3124,594,2041
