timestamp,ch1,ch2,ch3,ch4,ch5,ch6,ch7,ch8
66,0,0,0,0,0,0,0,0
66,-2033813,1424325,133783,-3547241,-595172,1685644,396670,330411
66,-1912767,1339479,124711,-3338285,-562732,1586903,373480,310521
66,-1799599,1260273,117058,-3140822,-529204,1492778,351362,292236
66,-1693324,1184813,112408,-2954644,-492777,1405983,330802,274625
66,-1594682,1114991,105386,-2779542,-464760,1321996,311179,258519
66,-1500295,1049665,98978,-2614249,-438074,1241494,292499,243377
66,-1410105,987549,91635,-2464711,-416561,1170718,275430,229006
66,-1326462,929569,87112,-2316909,-390720,1100326,258992,215534
66,-1248192,877366,82800,-2175256,-367986,1024871,242298,203288
114,-1174556,824356,78395,-2046733,-343049,962677,227651,191498
114,-1106361,775012,73661,-1926283,-322527,907981,214405,180159
114,-1041139,724841,69871,-1814847,-303860,865527,203090,168779
114,-978328,682033,65599,-1707404,-287035,813820,190971,158847
114,-921673,644367,59907,-1606972,-268581,766289,179650,149066
114,-867276,606440,56685,-1512067,-253567,719644,168809,140409
114,-814491,567537,54385,-1424662,-235577,683589,159352,132154
114,-767492,534427,52572,-1339722,-221870,641998,149974,124293
114,-721104,503553,51256,-1259328,-209056,601028,140919,117028
114,-677981,475528,41956,-1184316,-198291,563817,132369,110064
162,-637796,450139,42347,-1110532,-185699,520776,123477,104178
162,-599922,424153,40007,-1044841,-176794,487730,115750,98152
162,-565761,398307,39575,-983153,-165356,459457,109011,92514
162,-530964,374767,37807,-924889,-155618,432062,102566,86898
162,-500912,349245,31309,-874165,-145147,419223,97953,81215
162,-470195,329202,29922,-821930,-136001,393154,92034,76456
162,-443865,307896,29931,-772685,-128570,370146,86662,71703
162,-416683,289616,28817,-726886,-121689,347977,81498,67417
162,-393081,273070,27714,-683226,-115834,325139,76434,63578
162,-369882,255080,23650,-645082,-102750,311075,72464,59969
211,-347644,242370,23047,-604475,-99916,288709,67522,56554
211,-326704,227905,21233,-568890,-93876,272753,63802,53201
211,-306927,213896,21494,-535939,-88731,255940,59858,50062
211,-289145,201257,21583,-504003,-83603,240174,56213,47195
211,-271987,192856,19847,-471180,-80193,215909,51927,44755
211,-254847,181526,19131,-443189,-75589,202663,48877,42128
211,-241733,167154,17830,-420270,-66866,202834,47265,39106
211,-226070,157550,14901,-395349,-65391,190327,44410,36884
211,-212497,149072,12495,-371208,-63728,176610,41547,34796
211,-199540,140524,8775,-349720,-59733,168756,39302,32184
260,-189203,132354,17575,-324400,-56514,144226,35589,30864
260,-178126,125330,16052,-304770,-53923,132565,32941,29196
260,-167829,113310,11820,-292699,-45803,145477,32957,27034
260,-156609,107357,12075,-274727,-43366,135244,30920,25340
260,-148118,102721,8140,-258250,-42521,125502,29007,23376
260,-137826,97203,5123,-242159,-39027,117297,27224,22150
260,-130339,92654,10360,-224703,-36801,99904,24238,21287
260,-123763,87105,9357,-211779,-35003,94225,22844,20024
260,-115472,82045,8812,-199160,-33065,88313,21446,18853
260,-109588,75019,6457,-190066,-28551,93360,21216,17366
308,-103275,72715,9346,-175031,-31389,75747,18745,16848
308,-97107,67433,7663,-167193,-29993,76340,18130,15549
308,-91203,62674,4120,-158956,-24560,79060,17884,14142
308,-85818,59206,3933,-149551,-23201,74297,16797,13218
308,-78698,52900,5642,-143208,-22070,74875,16267,12488
308,-74069,50278,6112,-133910,-20894,68962,15215,11794
308,-70373,48559,2180,-123998,-21648,61618,13849,11153
308,-66597,45641,2435,-116425,-20083,57512,12947,10543
308,-63763,43384,2933,-108736,-18625,51858,11858,10037
308,-59487,43921,5479,-99466,-17269,39466,10119,10080
355,-55252,42154,5115,-93999,-15478,36149,9546,9480
355,-51576,36174,2733,-88666,-10627,44950,9733,8992
355,-48498,34141,2193,-83453,-11224,41805,9181,8324
355,-46702,32720,2202,-78144,-12210,37239,8427,7877
355,-44082,29562,2618,-76431,-10223,38397,8347,6832
355,-40904,27656,3126,-71549,-8964,34980,7713,6560
355,-38891,24524,2290,-72461,-7460,38717,7337,6469
355,-35571,22144,1364,-69474,-8547,40404,7563,5882
355,-33632,23064,949,-58789,-7296,29731,6396,5598
355,-32824,21655,2800,-55065,-6262,27207,5913,5272
404,-29513,21613,5458,-51073,-11587,19377,4539,5532
404,-27336,21552,2380,-46243,-9414,15159,4045,5186
404,-25699,20112,2164,-44029,-9146,15152,3967,4858
404,-25704,21306,3389,-38254,-9921,5387,2855,4940
404,-24935,14757,4111,-40870,-4959,22789,4484,3840
404,-23196,14466,3854,-38026,-5096,20155,4113,3596
404,-20121,13410,781,-35654,-3617,19772,3799,3265
404,-19043,12753,1145,-33285,-3403,18208,3515,3073
404,-19798,11204,-539,-32556,-3979,18854,3282,3093
404,-18536,10547,-772,-30368,-3870,17438,3054,2864
452,-16829,13388,-88,-25210,-5909,5479,1983,3006
452,-14540,8075,3004,-25990,-25,14550,2570,2566
452,-13678,7965,3850,-24363,169,13365,2388,2488
452,-14064,8156,4833,-22043,14,10084,2016,2409
452,-11622,11855,362,-19126,-3510,2499,1064,2735
452,-11014,10849,688,-17680,-2616,1998,1036,2651
452,-12019,6030,-382,-19928,-4138,13082,2091,2163
452,-11599,5817,-334,-18574,-4391,11817,1849,2076
452,-11026,3833,1120,-18010,-5019,10822,1801,2053
452,-10087,4091,1006,-16383,-5414,9111,1616,1991
501,-7414,9580,1242,-10024,-1314,-4710,0,2345
501,-6715,4009,-2058,-16783,-407,13653,1985,1430
501,-6498,3798,-2158,-14555,-1446,12173,1786,1275
501,-7807,3912,-1702,-12458,-1900,8791,1364,1315
501,-7219,3174,-977,-11280,-419,7528,1048,1198
501,-5348,2968,-748,-10392,-539,6278,996,1116
501,-5540,5193,762,-7233,-986,-2193,21,1580
501,-5196,5165,1034,-6393,-1146,-3113,-61,1510
501,-4876,2165,1131,-7376,1526,5754,676,1115
501,-5967,1797,1447,-6406,2947,5308,515,1273
550,-4016,4630,5575,-4699,-237,-7234,-753,1487
550,-3407,2891,-1798,-7434,-92,5730,860,509
550,-3179,4360,-632,-4588,-1164,-1342,57,802
550,-4155,6676,973,-1068,-2543,-11590,-1164,1323
550,-3739,502,1532,-6963,2883,9695,1055,346
550,-2272,703,2290,-6404,1896,8178,911,357
550,-3787,1327,-1259,-5484,397,5137,504,586
550,-2289,1160,-981,-4828,413,4511,463,641
550,-2081,3270,1325,-2405,-925,-4115,-252,957
550,-2841,3569,1018,-1840,-1292,-4616,-304,886
599,-1461,2580,359,-2181,1335,-2082,-204,872
599,-1793,-1331,181,-5104,2873,6795,702,457
599,-4092,-79,-1113,-2973,1471,4424,369,539
599,-3592,349,-1025,-3036,1123,3810,213,605
599,-1592,2673,49,4281,1850,-7159,-875,745
599,-2536,4149,342,5362,-601,-12801,-1562,1031
599,-2490,-1342,-581,-5230,-2550,7671,511,215
599,-1831,-992,-1651,-4377,-2909,6897,482,175
599,-495,-105,-2311,-2697,-1415,4312,258,186
599,-2236,-1004,-922,-2043,1876,3071,-99,205
647,-334,2164,-601,941,2676,-4974,-933,411
647,-1316,3800,1425,4029,-1704,-14283,-1987,1159
647,-247,2389,845,1900,-1022,-9666,-1633,980
647,-1832,-3301,-1418,-4918,2229,10345,492,172
647,-505,-901,-2376,-2424,475,5347,283,113
647,-1355,-837,-2208,-2011,845,4786,259,24
647,-1819,-1936,3953,-1315,3107,3341,124,-72
647,-1343,-988,3491,-321,2546,636,-120,27
647,-833,-286,-288,-2958,-3361,3770,24,-236
647,358,-389,1043,-2276,-2120,3371,27,-237
696,-1282,-1759,1450,-835,7369,1454,-338,-361
696,-253,-1949,-621,-3234,6047,4472,128,-582
696,452,-508,-1276,-1860,2168,1828,-278,-416
696,274,-542,290,-540,2408,1022,-247,-370
696,180,2103,-1442,1971,-2010,-8390,-1758,239
696,-1385,-2684,-4909,-3780,936,10138,319,-579
696,-690,-1478,349,34,2669,2424,-209,-475
696,-164,-1065,540,350,3031,1483,-261,-440
696,-938,-571,125,-178,-2160,1076,-428,-595
696,647,419,621,1412,-2217,-2644,-714,-512
753,491,2965,2597,5530,-601,-14235,-2372,557
753,-155,-590,-1035,-21,1106,3971,-139,-694
753,-333,-1229,-528,447,1377,3289,-168,-680
753,-300,-1333,-709,412,2038,1599,-693,-463
753,-1198,-1488,-665,446,1926,1264,-664,-420
753,-9,-911,-371,947,1685,-112,-755,-323
753,-1122,4240,2417,6236,-445,-17988,-2672,450
753,-959,1013,358,1020,1137,-5107,-1448,-50
753,1321,-807,-1352,-3376,-6639,2970,-55,-743
753,1276,-643,-1201,-5185,-3596,2707,13,-696
802,848,4197,5014,6886,4716,-14700,-1856,142
802,-590,3471,2739,6175,4874,-13469,-1950,264
802,-593,2236,585,4739,2508,-9785,-1595,232
802,-553,-2138,-768,-853,3253,6845,478,-794
802,-767,-1626,-89,-469,2635,5549,347,-717
802,733,-463,-1254,-955,3564,3025,-262,-404
802,208,-821,-1015,-275,2779,2667,-293,-332
802,-1306,-1072,-610,559,1474,766,-438,-218
802,-901,-2176,-2992,-1850,1771,8418,523,-513
802,-786,-2076,-1846,-642,2632,6304,318,-350
851,-776,49,581,3269,1942,-4797,-1160,421
851,336,-2265,-507,748,2854,2640,-285,139
851,471,-575,339,3083,1575,-3318,-697,268
851,1284,1682,1216,2623,-1929,-9328,-1423,301
851,868,1552,1386,572,-1373,-9394,-1387,349
851,712,-1815,1120,1420,427,5284,188,-285
851,868,-1740,3799,1298,1692,4622,272,-228
851,466,-1259,6391,1547,1765,2083,54,-119
851,-1098,263,-293,995,3862,1713,-80,-27
851,316,373,-241,1490,3149,182,-279,75
899,-843,1189,440,3042,-4762,-6742,-851,156
899,509,1305,-223,2250,-3300,-6083,-772,45
899,-592,-724,-1927,-636,-1044,2052,37,-250
899,1045,-2286,4902,1764,4045,2309,145,-280
899,513,-2007,2796,2070,5500,1594,-150,-126
899,-111,2991,1264,5414,969,-10547,-1162,155
899,915,3481,1556,5739,975,-12887,-1589,226
899,-290,2972,737,4833,1374,-10745,-1455,328
899,445,-2527,-1009,-1814,2083,6898,698,-408
899,-728,-2106,-1691,-1766,1630,6142,649,-474
947,-939,1869,-643,6618,1803,-7777,-1002,109
947,-1067,3176,1109,8307,525,-14750,-1852,548
947,5,2816,1287,6954,94,-13389,-1846,721
947,-369,-3873,-2478,-3848,3099,12647,1167,-739
947,907,-3181,-1873,-2803,2995,10009,979,-724
947,-80,-2053,-914,518,3645,3924,237,-853
947,927,-2007,-297,472,3308,3645,233,-927
947,-486,-391,-1231,-1401,-412,-34,-77,-190
947,-276,2113,497,2982,-2039,-11455,-1352,276
947,772,2088,875,3810,-2283,-13127,-1761,517
996,648,-979,-10415,-982,1608,4899,259,-551
996,-409,-1039,-11029,-490,1527,5065,298,-454
996,892,2292,-6718,4333,-843,-8247,-1027,106
996,-12,-434,-683,-259,-3229,3692,194,-252
996,853,-714,-634,-179,-2590,3126,129,-191
996,-645,-5142,1885,-3245,714,12822,856,-544
996,-1027,-4654,1275,-1694,1259,10938,914,-452
996,-926,-3987,563,-253,1552,7435,640,-207
996,-208,-1202,872,807,5494,2366,120,-93
996,-123,-643,1148,1514,4426,298,-104,-30
1044,-761,1709,1750,4634,-322,-11055,-1741,735
1044,781,1451,1757,4453,344,-9992,-1654,633
1044,1037,996,1598,3744,942,-7945,-1425,556
1044,793,-1310,-1394,-253,454,4836,481,-428
1044,978,-1325,-633,-102,358,4360,418,-467
1044,-586,-1846,5940,505,1355,1728,-70,-429
1044,-92,-1184,5126,843,1289,1153,-166,-302
1044,0,-3463,-2082,-2705,-813,8569,513,-314
1044,931,-3077,-1243,-1724,-573,6458,308,-243
1044,852,-2167,-344,-123,-2,2936,-60,43
1093,-250,248,378,2072,2991,-2529,-712,-274
1093,-462,-1116,-475,433,3177,2751,-13,-427
1093,-302,1141,505,3493,634,-6144,-761,0
1093,451,1450,3884,247,282,-8523,-1192,374
1093,-795,1154,3403,1526,1285,-7814,-1227,472
1093,-513,-720,-249,183,3860,4180,261,-417
1093,-80,-406,-289,584,4629,3021,75,-319
1093,838,-1105,753,3261,2724,648,-276,-22
1093,-225,-741,760,1766,1512,914,-211,-144
1093,-94,59,591,1244,-43,-958,-426,-149
1141,1372,2366,-498,4427,160,-9928,-1368,378
1141,1403,1259,-1459,2323,1160,-5284,-1043,257
1141,593,-748,-2529,271,2548,1389,-349,121
1141,-669,288,-2538,592,481,2116,-320,-230
1141,-314,-661,-2590,754,377,1548,-364,-154
1141,1341,2075,-107,2462,-2561,-9305,-1762,837
1141,909,1851,384,2853,-2195,-9164,-1782,870
1141,223,-2171,701,1748,2699,4254,48,-35
1141,1277,-1728,276,2089,2732,3577,-90,83
1141,1301,-708,163,2895,2440,1046,-273,140
1189,1515,2578,1642,3364,-2531,-10640,-1399,574
1189,1168,3684,2292,4866,-1895,-15172,-2028,822
1189,-137,2979,2717,5035,1166,-13558,-1973,953
1189,-953,-2871,-3815,-2392,944,9422,627,-20
1189,-588,-2211,-1755,-1474,821,6706,352,56
1189,-774,-2352,2561,-3879,-36,3851,98,157
1189,-569,-1899,3762,-2362,-349,3449,51,210
1189,-169,2437,-5351,4497,-2918,-9364,-1758,847
1189,1281,2428,-4376,4634,-2712,-9690,-1714,912
1189,564,-1814,-2935,-717,-2641,4740,45,-70
1238,-664,-2312,1744,-366,2516,3735,-105,-521
1238,-525,-1714,2199,767,2945,1664,-252,-355
1238,-429,-1305,1421,62,1273,2260,-160,228
1238,-240,-1038,1399,225,1015,1839,-217,235
1238,-340,-2881,-2820,-3742,-3170,9083,427,294
1238,1240,-2121,-4507,-4852,-2960,7542,405,69
1238,1536,-1386,-6036,-4338,-1685,5659,411,-15
1238,-470,-1320,1062,299,-1223,1451,-57,-202
1238,538,-1634,1303,354,-1988,1288,-23,-102
1238,-233,1537,13536,4188,1995,-10725,-1511,550
1286,-827,1731,-3466,2496,-3983,-7539,-1395,517
1286,-476,-502,-8390,-339,-1319,2774,0,-11
1286,1256,-1897,3731,628,1839,1667,-104,-180
1286,988,-1823,3888,936,2007,851,-259,-84
1286,-151,-804,94,1144,593,250,-322,-109
1286,1087,-680,-44,1244,1047,241,-192,-205
1286,15,-305,-128,1358,432,-797,-165,-145
1286,134,-1743,445,-2007,3379,5749,423,-580
1286,1596,-960,1108,-801,2786,2692,106,-475
1286,-43,-1562,3205,22,192,631,-121,-738
1335,2559,3324,1258,4541,-2398,-12328,-1317,-180
1335,2483,1031,-686,1018,-976,-2731,-421,-599
1335,-813,3619,5659,8325,-171,-22389,-2761,520
1335,-213,1544,7763,5368,2634,-13974,-2004,131
1335,-489,-1752,796,-393,2065,4514,128,-875
1335,-647,-1484,519,-293,1680,3882,13,-772
1335,-199,-998,276,354,1308,2113,-129,-792
1335,-523,-2435,6068,792,6861,1481,-333,-529
1335,727,-1733,2558,-728,7683,1303,-365,-531
1335,948,-1660,-398,-326,2864,4825,218,-691
1384,-905,245,3021,4120,-2015,-6126,-1297,-71
1384,-759,-2166,1456,1045,3,2887,-346,-331
1384,648,-1602,-475,-281,1087,3201,28,-813
1384,-508,-1600,-546,-303,673,3154,168,-853
1384,425,5663,3206,3535,-3491,-21507,-2697,710
1384,1613,3086,1236,940,-2022,-11005,-1669,323
1384,1631,4688,2239,5103,-2760,-17632,-2150,620
1384,-45,-2190,3493,-1019,5348,6225,726,-929
1384,1488,-1890,2437,-895,4560,5528,667,-878
1384,949,-2187,3496,-254,635,3473,108,-566
1432,218,2696,3142,6831,779,-13921,-1745,136
1432,1703,2087,-234,4964,473,-10072,-1446,47
1432,-386,-2702,2103,-1073,2044,7102,339,-108
1432,146,-2229,1885,-644,1773,5915,184,213
1432,1168,-1874,-1919,-112,1594,4711,232,-1027
1432,762,-1434,-3086,-211,-142,4395,210,-964
1432,-274,-594,-3494,200,-1610,2926,113,-940
1432,569,-56,-1201,4475,124,-6237,-1221,227
1432,623,-2261,-3680,406,-937,5297,90,-320
1432,1387,-577,-1805,-667,2070,3890,199,-853
1481,1024,-722,-626,706,3105,1149,-423,-455
1481,1265,-1217,-1132,1280,3584,3323,-111,-475
1481,-520,1162,4876,4107,-1759,-11260,-1639,394
1481,-524,813,5889,3111,-1908,-8822,-1398,265
1481,1054,-1446,-1726,-821,3964,5875,334,-327
1481,-495,-1204,-2655,-624,3238,5077,332,-261
1481,-411,-862,-2999,-180,2743,3916,164,-272
1481,1217,-1463,-2477,-276,416,3711,388,-381
1481,229,-561,-2333,107,-20,2485,215,-356
1481,-666,-2554,1104,-1315,2157,5636,253,-86
1530,913,1179,1942,4231,-255,-8570,-830,217
1530,-94,147,-569,2097,513,-3967,-523,70
1530,1317,-1273,-283,13,469,3208,268,-588
1530,940,-1090,-140,358,-798,2397,228,-572
1530,-453,-247,50,1272,-2282,-147,5,-406
1530,-657,1060,5332,3587,-957,-9109,-1142,232
1530,-465,1044,7560,3480,-1014,-8445,-1110,627
1530,1328,-1959,-1134,-545,1855,4647,576,-787
1530,932,-1225,-1042,168,627,2704,293,-603
1530,1822,-1103,712,-288,326,3655,371,-647
1579,-443,3474,2094,5592,-2155,-14832,-1750,421
1579,-491,2389,1166,4315,-1277,-11759,-1585,484
1579,-112,-3426,-1388,-2774,2248,9625,848,-489
1579,798,-2845,-421,-1991,2631,7295,634,-336
1579,-349,-2121,837,-820,4031,4535,372,-238
1579,-180,-945,-1779,-618,-87,3307,54,-164
1579,1035,-1145,-1251,27,-537,1876,-125,10
1579,927,2209,1097,-260,-1709,-8333,-1130,311
1579,1928,2046,851,659,-979,-7747,-1015,306
1579,672,-1025,-2900,-1333,270,3841,541,-195
1628,-517,-563,-1596,734,1018,-594,-320,469
1628,741,-1169,-4956,-887,839,3936,286,211
1628,553,-1704,2136,-261,1645,2619,354,57
1628,-936,-1241,1749,-172,1062,1731,316,59
1628,-1192,-834,2283,955,923,-754,-45,252
1628,1294,-1427,-4592,-770,2904,5440,640,151
1628,1058,-879,-3548,-440,2423,3955,520,282
1628,-543,-899,1622,447,1779,1965,212,74
1628,-540,-800,1409,562,1481,1457,89,118
1628,1084,2009,835,3658,-492,-9733,-1330,690
1676,-155,5157,7097,7519,-2762,-21711,-2691,1320
1676,-92,2130,2827,3053,-1255,-9862,-1585,821
1676,98,-1681,-889,-1241,1358,3726,87,35
1676,-920,-1088,-1163,-2865,314,3691,45,-7
1676,230,-258,-1026,-2059,-479,1547,28,52
1676,1045,-1337,-428,1043,2855,2676,-83,869
1676,882,-1233,182,1410,2741,1744,-153,594
1676,700,-3545,-4431,-1942,2508,9292,574,-552
1676,-452,-3191,-2196,-1449,430,7607,571,-657
1676,481,-2140,-1252,594,347,2286,-12,-119
1724,-1017,1894,6272,4856,3559,-11107,-1516,507
1724,-1085,467,5314,2651,3929,-6417,-1045,347
1724,1184,107,1244,1902,1239,-3771,-624,110
1724,-102,2836,2234,5461,-893,-13754,-1645,587
1724,-580,-1348,-9731,-389,2677,4557,142,-165
1724,778,-938,-8758,-367,-158,4151,112,-194
1724,1265,-288,-7496,-442,-4231,3540,144,-297
1724,-669,-1773,1835,757,152,2433,15,-144
1724,-292,-1394,1924,1059,2214,4343,480,-385
1724,-336,-1426,2278,1448,2245,3557,370,-373
1773,433,1879,2736,-250,-544,-4840,-623,0
1773,1776,552,1659,-189,365,1185,144,-345
1773,-342,-1287,-628,-758,3109,2758,324,-468
1773,946,-1289,275,663,4112,1164,41,-141
1773,1583,1969,947,3744,-1272,-8006,-749,-27
1773,1665,4864,3115,8263,-2239,-19675,-1839,503
1773,1012,-2068,324,146,1041,3563,579,-429
1773,-373,-1956,652,104,441,3100,527,-396
1773,-785,-1724,1621,777,123,601,194,-260
1773,-95,-945,-893,-141,-1402,2730,442,-571
1822,1325,2997,2254,5377,-1475,-14032,-1296,313
1822,1070,2953,2204,4661,-1133,-13360,-1460,358
1822,-923,-3479,-1233,-1464,2555,7083,839,-771
1822,335,-3300,-484,-1189,2892,6223,756,-715
1822,672,-2450,2078,-2641,891,3157,229,-641
1822,473,-2067,2714,-1210,1697,1518,-38,-491
1822,1573,2868,2004,2050,1210,-5729,-564,-515
1822,-137,694,1058,-535,1880,1215,109,-722
1822,-266,-1230,7,-2040,1523,6221,635,-738
1822,-385,-2423,316,-842,777,2266,76,-550
1871,691,-534,4162,2606,901,-4236,-667,-181
1871,56,-2557,2716,353,2294,3556,141,-418
1871,1484,2793,499,7123,-27,-13487,-1614,-61
1871,1133,2090,526,5668,388,-9872,-1373,-19
1871,-204,-2731,1739,-628,1752,6384,487,-797
1871,1101,-2343,2296,-98,1939,4802,352,-567
1871,1179,-1408,1351,28,1353,2618,-71,-35
1871,1023,-1152,-1157,302,1432,2259,-147,11
1871,387,-605,-3808,731,1124,862,-248,39
1871,-746,-1073,-1912,962,1902,3417,-25,-224
1919,-1086,795,331,491,-2326,-5475,-778,138
1919,-769,1116,349,-907,-4277,-5778,-920,117
1919,354,-1377,-447,686,4729,3370,110,-280
1919,689,-1535,513,590,4637,2701,153,-280
1919,613,2034,-279,2836,-2732,-8659,-823,298
1919,-482,3310,283,3942,-2752,-13072,-1437,578
1919,-91,-1710,-2069,-807,2222,6450,813,-586
1919,-155,-1568,-2492,-353,2042,5502,669,-458
1919,104,-806,-2527,571,1544,2594,358,-288
1919,496,-1011,-1036,-1643,-760,3064,288,-240
1968,-671,1999,3052,5049,-720,-12368,-1391,593
1968,930,936,2764,4610,1527,-8127,-1010,434
1968,-725,-4517,5213,-5233,2066,10711,940,1
1968,-985,-4813,4602,-3911,2164,11637,1179,-143
1968,1281,-857,-1026,-1529,-4348,3588,440,40
1968,1436,-526,-505,-991,-4183,2228,340,86
1968,173,3196,2364,4411,-1495,-11465,-1196,500
1968,1084,2931,1659,3989,-1453,-11636,-1429,720
1968,-139,2439,1016,3831,-902,-11282,-1446,786
1968,-868,-2737,-1014,-2028,-1496,6077,684,52
2017,-437,1942,1039,4805,256,-7713,-814,1729
2017,1361,-923,-4809,-955,4438,6210,601,620
2017,-218,-1526,-1407,-546,545,3687,407,-243
2017,888,-1085,-1300,-38,457,2728,243,-152
2017,-607,-3921,2249,-670,4900,11012,1091,-700
2017,-99,-3139,2213,394,5454,8605,911,-631
2017,514,-671,-1629,-652,-735,2380,356,-514
2017,2109,-64,-4710,66,227,1950,361,-539
2017,2131,876,-6287,1141,629,-481,99,-550
2017,-835,2495,-1140,4224,-1743,-11992,-1508,434
2065,666,983,1736,4283,-1836,-9257,-1192,435
2065,633,992,2391,3686,-3227,-8685,-1130,397
2065,-585,-1418,-2361,-1184,1812,3843,417,-883
2065,626,-767,-3014,-284,1264,1046,207,-657
2065,-767,-580,77,973,1757,1812,123,-163
2065,-152,-302,87,1241,1462,939,44,-176
2065,668,-602,-3194,-2083,-2336,1387,-283,281
2065,-272,-2957,-7826,-4590,-354,11008,1017,-233
2065,-49,-1947,-7255,-2759,247,7374,840,-285
2065,-662,-1960,5583,-370,1742,1438,242,-172
2114,-656,1477,445,4353,1495,-9260,-1129,1300
2114,-802,-1156,-411,873,3457,1357,115,421
2114,534,1722,2787,2626,126,-8300,-1200,341
2114,802,3013,3247,4144,-916,-12544,-1578,568
2114,555,-1728,91,-1452,1440,4420,374,-304
2114,-559,-1113,271,-576,-971,2771,206,-187
2114,-451,-662,99,-3939,-1233,2733,368,-268
2114,-650,-685,435,-2304,-1389,2224,307,-301
2114,-430,-171,913,-952,-2839,-247,31,-189
2114,-455,-2118,931,-618,3625,3687,465,-182
2163,1401,77,711,756,1408,-803,-271,80
2163,1154,-925,166,-154,1800,2640,265,-72
2163,1538,-253,-1022,1376,5231,1509,224,-41
2163,1420,110,-4245,988,2304,1277,255,-109
2163,272,2475,3689,6984,-1967,-16305,-1737,1335
2163,-471,4674,5063,7952,-2349,-24298,-2589,1534
2163,603,4511,4760,5417,-1674,-22378,-2490,1392
2163,-399,-1447,656,-4132,-795,6656,1064,-171
2163,754,-1157,1203,-4446,-265,5105,923,-117
2163,-1460,-1822,703,-526,1451,3874,720,94
2212,-1067,2141,3080,5034,-1361,-13362,-990,728
2212,-586,1248,2697,3570,-661,-9710,-761,549
2212,814,-2503,-305,-2156,92,8047,1417,-1729
2212,-576,-2324,-442,-1253,-875,6574,1067,-1762
2212,-159,-2589,1067,-1493,602,6169,1298,-454
2212,1041,-2348,727,-1652,507,5701,1256,-506
2212,1177,-1883,648,-1428,578,4357,1047,-459
2212,-797,-2761,-1078,-1854,1662,5047,389,214
2212,-767,-2608,-695,-1221,2516,4672,575,65
2212,429,-1033,221,43,1610,3130,770,-119
2261,468,1852,2094,3950,-300,-9675,-672,535
2261,-786,-1255,467,-125,1793,2924,503,40
2261,-455,1814,2203,4072,611,-10923,-1015,627
2261,413,1265,1815,2922,-312,-8410,-737,558
2261,-396,-2920,-1544,-3316,2681,5960,803,16
2261,-1298,-2535,-621,-1986,2522,5140,637,165
2261,-76,-1826,-209,-905,2174,3700,519,181
2261,996,-1948,-1029,-272,3330,3528,630,-200
2261,868,-2109,-1248,-1253,2359,3422,684,-188
2261,1237,2639,5687,4954,-3985,-17946,-1638,1167
2310,-284,1912,1066,1680,-3251,-5666,-96,541
2310,-260,1020,-331,-357,-1157,-1015,202,260
2310,895,-1949,641,-1427,2215,4503,720,219
2310,996,-1481,611,-914,1764,3108,556,291
2310,1476,2082,1813,2835,-1614,-9386,-712,748
2310,1695,1341,1554,1870,-1883,-7381,-533,564
2310,1458,1381,1810,2075,-2348,-8263,-553,513
2310,15,-2080,-623,665,4428,6445,1243,-170
2310,20,-1822,-300,676,5157,5409,1115,-58
2310,-494,-2375,511,-1078,304,4747,1151,-71
2359,-484,3905,3011,4602,-1830,-13272,-953,745
2359,799,3117,1617,3002,-1441,-10202,-769,674
2359,1144,-3899,-1639,-6996,-373,11679,1834,-307
2359,840,-2929,-1182,-4532,-101,8862,1485,-231
2359,-811,-1508,-1017,-920,1677,5280,1140,-16
2359,-308,-1278,-523,-646,1418,4273,996,-4
2359,862,2233,-483,2256,-2062,-8410,-525,621
2359,843,2174,-752,1548,-2118,-6737,-247,499
2359,-353,2278,-627,1714,-2279,-6667,-282,849
2359,-598,-1953,-3222,2869,2570,4452,911,-225
2455,1195,1933,970,3449,-971,-8920,-581,666
2455,-665,-1369,-314,-858,1040,3438,730,187
2455,848,-1170,-214,-742,849,2966,662,170
2455,1063,-496,66,-62,271,687,506,196
2455,862,-1520,2077,228,3751,3224,715,-175
2455,482,-1139,1910,880,4221,2653,675,-154
2455,-677,-3150,-737,-2094,3054,9696,1207,-177
2455,-400,-2039,-699,-985,3048,6579,946,-88
2455,298,-250,-594,723,1885,1986,479,191
2455,1734,0,-554,806,1444,1508,459,235
2504,-752,381,471,446,935,-2786,-282,641
2504,173,545,1198,420,-3111,-6271,-285,1049
2504,927,389,1323,861,-4160,-5925,-266,1355
2504,-179,3524,3180,5640,-6224,-18855,-1609,2159
2504,759,-1730,-2744,-434,-2123,4465,697,177
2504,432,-1570,-2423,334,189,3765,614,149
2504,166,-2301,-844,-1447,-2121,3499,723,-137
2504,-867,-1755,226,-882,-1845,2918,688,-152
2504,-1093,-1222,-195,-773,3219,4375,866,-107
2504,-570,-960,-563,-621,2870,3728,801,-195
2553,971,1461,558,1346,328,-4763,-54,-57
2553,971,-732,-566,-2046,912,4195,822,-478
2553,1150,-686,1484,-1789,5822,1943,538,160
2553,1217,-69,1219,332,5049,183,447,185
2553,519,2360,1289,3673,1561,-8267,-118,419
2553,-1077,5325,3051,7626,-686,-20456,-1443,1073
2553,-164,-1325,-649,-904,1251,4407,1069,-171
2553,764,-930,-534,-789,1246,3877,1014,-189
2553,-497,-824,-60,-191,1520,2534,933,-127
2553,-1056,-1606,-596,-2308,-1482,3038,857,-401
2602,955,3110,2352,5951,526,-14037,-988,270
2602,781,2682,2313,5232,1336,-13158,-1064,256
2602,-581,-3100,-511,-1734,2012,7731,1274,-861
2602,596,-2554,-546,-1376,1905,6746,1189,-723
2602,634,-657,-1702,1068,1087,2869,502,-332
2602,-512,-185,-1478,1789,594,1147,299,-291
2602,-201,40,2827,722,444,-5328,-305,-227
2602,-7,-1425,1398,-1675,1697,2071,423,-562
2602,1389,-2254,714,-2950,2097,6196,901,-652
2602,-794,-1400,-183,-243,1715,2428,343,-393
2651,683,495,932,3191,2795,-4222,-395,-75
2651,771,-1498,-200,-161,3285,3838,488,-455
2651,-952,1201,3424,4366,-260,-12695,-1339,361
2651,-51,479,2978,3091,839,-9422,-1062,152
2651,578,-2285,-829,-1821,2888,6257,892,-827
2651,-115,-1793,-739,-1546,2103,4792,708,-798
2651,489,-917,-237,257,325,2880,387,-501
2651,713,-650,196,418,269,2279,338,-452
2651,340,-29,700,1127,-38,-30,155,-423
2651,-904,569,-935,-2382,-766,3996,443,-605
2699,-586,-836,-966,-1583,1046,5465,921,-821
2699,460,2033,594,2989,1837,-5598,-140,-473
2699,982,-2527,1535,21,1028,2364,341,-644
2699,-387,-3002,2381,-274,1809,1225,177,-559
2699,-1565,-95,-713,260,1104,1192,163,-581
2699,-1210,2570,748,4256,-1757,-9434,-898,37
2699,397,-1982,503,-540,2470,6213,804,-1200
2699,1447,-1511,709,-282,2340,4586,628,-1151
2699,396,-771,1096,332,2034,2075,285,-999
2699,807,-1053,12,-1179,494,2332,17,-747
2748,-584,2055,2256,3044,-3683,-12350,-1535,-4
2748,441,1432,1645,1735,-3025,-8467,-1094,-152
2748,-449,-4009,4124,-2995,4333,12941,1175,-1034
2748,881,-2659,962,-1491,2007,9337,918,-947
2748,-441,-1176,-993,-2133,359,4187,288,-941
2748,-535,-1996,-637,-740,1363,3957,289,-944
2748,-108,3299,2304,3451,-2220,-11502,-1126,-578
2748,-171,2582,2368,3061,-772,-11906,-1413,-336
2748,765,1935,2516,3005,48,-11538,-1549,369
2748,-895,-1421,-611,-835,1130,4065,315,-1166
2797,-412,2939,1100,3419,-2725,-9577,-1303,-439
2797,-446,1140,-57,-740,-1269,-1566,-561,-785
2797,1566,-793,129,-1191,319,1670,246,-1133
2797,206,-797,460,-571,1136,356,156,-1023
2797,-812,-1493,-1267,-4919,3077,12143,957,-1299
2797,-632,-1119,-787,-4001,2276,9592,819,-1287
2797,202,1298,1448,-274,1836,3424,190,-1307
2797,1101,1522,1196,-366,1237,2717,157,-1317
2797,123,2208,1479,479,470,308,-18,-1193
2797,297,4869,3726,1843,-2045,-14034,-1450,-956
2845,996,3671,3894,3064,1862,-6477,-1376,-872
2845,-522,2721,4026,2360,2445,-5726,-1273,-789
2845,-696,2183,89,-2298,1230,4987,275,-1699
2845,513,2072,370,-1365,950,3785,61,-1449
2845,102,1628,2913,4007,1624,567,18,-1920
2845,1197,2136,2881,4324,2093,141,-105,-1668
2845,-517,-1584,3036,-4276,-1450,10037,278,-2120
2845,-781,-1118,3218,-3221,-3669,7297,-3,-1958
2845,-217,-64,3499,-2161,-5918,3649,-376,-1759
2845,196,4088,1964,1140,4372,1639,-357,-2087
2894,1183,6013,4102,3327,-4586,-7901,-1290,-1718
2894,1283,2342,2710,-1553,-1715,2922,-252,-2034
2894,79,3587,5432,1866,415,-6626,-1317,-1723
2894,-1426,4586,5936,3495,-542,-11348,-1735,-1366
2894,-1204,-702,3822,118,2655,6019,330,-2916
2894,-1110,-271,3895,981,2417,4262,359,-2722
2894,439,1170,4127,-719,2551,7334,45,-2459
2894,-687,1059,3775,-460,3302,5635,218,-2214
2894,586,1621,3313,239,2884,3079,100,-2011
2894,994,1779,3418,-4576,-2107,6122,590,-2604
2943,1065,297,6174,-228,375,-6688,-653,-2170
2943,1208,-299,5609,-1018,479,3452,143,-2342
2943,757,1961,3489,-394,-3872,5196,743,-2975
2943,-753,1714,3473,-735,-2369,4040,581,-2722
2943,183,8062,6383,4306,488,-12298,-1704,-1681
2943,1554,9402,7435,7357,-3021,-19856,-2585,-1171
2943,-1681,-801,4995,-3032,2049,3744,220,-2851
2943,-1599,-550,5028,-2652,1959,3173,65,-2659
2943,-1069,251,5157,-1554,1458,1745,-110,-2436
2943,-630,85,5548,1488,1956,3204,315,-2935
2992,-824,5068,8249,7402,0,-13771,-1844,-2116
2992,-859,3625,7374,6566,556,-10819,-1547,-1922
2992,-1425,-55,5544,-2011,2474,7305,469,-3078
2992,-777,360,5256,-1229,2257,5940,424,-2927
2992,241,156,5343,-573,937,9778,219,-3307
2992,-1256,373,4892,-1257,407,9399,518,-3204
2992,-1260,581,4802,-1462,-148,6065,543,-3007
2992,676,2408,7002,1132,441,-3526,-532,-2718
2992,483,-437,5127,-2708,1732,7467,546,-3005
2992,94,321,6821,-2316,1388,3667,-241,-3344
3041,-474,1328,9550,6611,576,-17367,-2270,-2049
3041,-2488,-2019,7844,2289,520,-7896,-1221,-2072
3041,-753,3590,8785,2341,-1516,-7030,-888,-3133
3041,578,3161,8108,1283,-1176,-5189,-636,-2986
3041,-1211,-1044,5924,-2230,738,5319,782,-2818
3041,-1170,-603,6264,-2182,1347,5242,597,-2133
3041,225,437,6602,-1909,1055,3896,362,-2067
3041,639,-157,6908,-164,1929,6536,695,-3598
3041,-757,-407,6932,734,582,5787,419,-3273
3041,-234,3939,10914,2603,-2766,-13978,-1782,-2929
3090,726,-653,11865,1202,-217,-3611,-77,-3312
3090,-571,-2278,11004,-38,501,1502,318,-3339
3090,303,-753,7195,-1019,1363,4889,-702,-3202
3090,-290,-664,7054,-148,1471,2321,-1081,-2005
3090,-810,2990,9417,2976,-833,-5514,-4944,-1337
3090,-442,2589,8814,2148,-344,-3878,-4813,-886
3090,557,2866,8607,2398,-813,-5137,-4930,-81
3090,-39,-3299,8601,4805,-250,5902,-695,-3294
3090,-144,-1738,7601,2849,145,5628,-737,-2725
3090,770,-1416,7689,-4345,-1632,7937,2602,-4649
3138,228,464,10639,5578,2447,-5669,609,-3815
3138,243,1738,10564,6612,2006,-9262,140,-3582
3138,-830,-5028,8641,427,3922,13982,2418,-4842
3138,-1885,-4073,8267,17,3164,11970,1989,-4482
3138,794,-1740,9907,-1527,3698,6948,1450,-3948
3138,739,-1838,9804,-1311,2332,5482,1237,-3725
3138,-828,1728,10711,250,-2437,-6395,-135,-2788
3138,-520,3250,11642,1439,-4050,-3790,-1359,-1545
3138,-1079,-1760,10630,-1704,1471,6802,763,-6480
3138,-159,-1715,10189,-2141,1527,6084,588,-5665
3186,287,2569,11333,45,-913,-3920,1708,-4534
3186,-1421,-1339,10997,1506,1036,5252,833,-3930
3186,-401,-1237,10545,1327,-66,5247,707,-3634
3186,-1805,-734,10479,1503,-110,2485,364,-3250
3186,-333,1509,14356,2525,-5258,-9329,-897,-2671
3186,-189,-3685,10975,-3053,-1505,9165,963,-3271
3186,-1970,-1298,11470,-116,3212,5350,1002,-3940
3186,-1344,-1131,11180,510,2212,4764,1133,-3749
3186,-611,-1020,12246,-4773,-437,8049,1367,-4663
3186,-453,-205,11157,-3411,-2143,4859,1180,-4185
3243,-1566,3716,11590,2995,-3664,-12965,-1268,-1537
3243,-1564,-2200,11824,-1422,2389,7931,1856,-5159
3243,-298,-1585,11098,-582,2027,6277,1383,-4651
3243,415,-653,11870,125,1172,2810,2099,1971
3243,318,-834,11272,-1075,762,2957,4235,-2640
3243,-1116,-685,11197,-2064,584,2342,4639,-4565
3243,-531,-3094,13003,-1997,4068,8617,3431,-6902
3243,-750,-2060,13047,-993,3066,5421,3047,-5887
3243,-1627,-1369,13202,-3734,455,5684,736,-4485
3243,-311,-1510,12865,-3154,-1208,4323,1007,-5328
3292,-1749,2500,15600,5746,2036,-9892,-1697,-2029
3292,-1517,3017,15165,5012,1611,-12255,-2079,-1903
3292,-1092,2057,13870,2114,1683,-8574,-1672,-2544
3292,-419,-924,12017,-864,1474,7025,-4356,-2741
3292,-478,-1231,11670,-348,914,6210,-3832,-2128
3292,-1504,-1122,12474,-3311,607,9290,5325,-7803
3292,-141,-890,11566,-2843,1213,8031,3798,-6495
3292,44,-346,11270,-1458,1936,5460,2593,-5305
3292,-1229,-3031,11990,-3433,1055,6201,1436,-4301
3292,-1989,-2697,11490,-2669,2291,6893,1822,-4624
3341,-1034,-143,15308,2968,-662,-8895,-2046,780
3341,-1763,-2979,13261,-2090,788,480,61,-288
3341,-552,-3107,13308,-2338,245,-1974,1031,-1387
3341,-357,2984,13751,1025,-2404,-4575,2940,-4221
3341,750,2610,13001,1560,-2577,-4871,2842,-4800
3341,-1484,-2295,12187,6412,2400,7521,-615,-2568
3341,-1112,-1697,11552,5662,2160,6963,-609,-2437
3341,268,-710,11277,4538,1698,4406,-707,-2231
3341,385,-792,11253,-1916,-930,5619,-1773,-1458
3341,-1087,-377,10762,-3188,0,4187,-2367,-673
3390,-1438,-474,12403,3269,1278,1266,3279,-2721
3390,-53,-969,11226,2040,1720,5016,4226,-2789
3390,-1168,-198,10990,2914,1287,3197,4746,-2831
3390,-393,-2836,13571,-6341,3460,5193,-1575,1727
3390,-622,-2132,12734,-5452,3003,3635,-517,853
3390,803,169,15498,1761,-1585,-7836,-342,-4792
3390,482,529,14428,3596,-1195,-6630,-406,-4258
3390,-614,930,13588,4155,-565,-6685,-278,-4011
3390,-667,-1637,12670,-1148,2076,5383,44,-4376
3390,-381,-955,12197,-239,1070,3334,-589,-4006
3439,745,4060,15196,4231,-2219,-12366,-1985,-583
3439,123,2279,14310,1988,-2231,-8675,-1718,129
3439,-1494,856,13751,1079,-2432,-6827,-1452,621
3439,-1377,-2828,12462,-189,2276,12226,-654,-4593
3439,-880,-2119,11494,79,948,11270,-1298,-4207
3439,699,297,11684,-1365,557,5511,3694,-5762
3439,272,-325,11408,-1243,898,5012,2563,-4618
3439,-520,128,10801,-1101,747,3092,1592,-4102
3439,712,421,14553,2421,-531,-6802,-669,-1502
3439,-164,817,13556,2985,-563,-7063,-678,-1255
3488,-1660,-3614,13845,-1301,1611,2817,2772,-5683
3488,-2253,-4739,13428,-4332,1858,4658,1870,-5855
3488,-1637,-1787,15066,-2064,-457,-7417,-274,-4491
3488,-969,-2394,11934,-1810,1702,6289,1185,-3915
3488,115,-1684,11303,-1140,1575,5875,982,-3509
3488,-1163,-1611,10469,-1423,3564,5137,-4215,3725
3488,528,-1071,10232,-7902,3046,4980,-3698,3674
3488,832,-961,10268,-13010,2162,5913,-2700,2588
3488,-119,3941,10421,-1399,-280,4771,1714,-4486
3488,-578,2531,10223,-885,-214,3593,3158,-5687
3536,-570,2834,14188,2603,-650,-2511,1099,-4149
3536,-331,524,11946,596,5012,6831,2569,-4445
3536,216,2693,12539,4971,7630,-6729,1640,-3547
3536,-672,-980,12014,130,1054,4011,-2446,-2086
3536,-338,-769,11402,107,742,3468,-2118,-1500
3536,1279,-1419,12937,957,842,3019,3691,-5364
3536,366,-989,12183,-1314,1287,3538,1964,-5151
3536,188,-1216,11944,-2309,1396,2342,647,-7054
3536,181,1522,9515,-5634,-445,8627,1771,-4124
3536,-162,636,9642,-4691,-94,6690,1443,-3884
3585,-1847,-1698,11974,-2297,-380,-2165,675,-1977
3585,-1551,-3718,11504,-4752,906,3829,502,-1893
3585,-2111,-933,12680,-2186,-440,-3312,82,-1914
3585,2251,6072,16267,2992,-1071,-11837,-468,-3228
3585,931,6348,15074,2529,-675,-9177,-193,-3004
3585,576,-2473,12609,-2647,-5491,5525,-4519,-786
3585,120,-3232,12029,-1958,-5022,4964,-5455,225
3585,-151,-2840,11110,-987,-6126,3227,-5699,675
3585,-179,-1657,11326,-374,2231,1169,2529,-4520
3585,-1234,-830,9863,-308,1439,1545,1999,-3769
3634,655,-648,14654,-2834,-320,-5485,1333,-5250
3634,467,-4176,13329,-4442,1904,4466,1512,-4274
3634,-16,-4016,13386,-2860,1403,3259,815,-3114
3634,-1128,266,10540,-914,1560,2270,1692,-3463
3634,-124,1709,8739,-3211,958,2784,1283,-3049
3634,51,6079,15469,5247,-2144,-18991,-729,-2430
3634,1108,2901,14400,2653,64,-9784,-120,-2893
3634,698,3156,14278,4744,-105,-12375,-483,-2814
3634,-238,-5672,12577,-1703,-161,7313,1423,-3896
3634,-1469,-4497,12352,-2673,-2365,6070,950,-3489
3682,648,5915,13633,2110,-6116,-9425,-1360,1195
3682,1206,4208,12851,435,-5491,322,635,1054
3682,1183,2353,12112,566,-4326,2232,1841,114
3682,-1525,-4416,12289,-10394,-136,12655,5614,-5603
3682,-243,-3789,11619,-9121,-809,10540,4915,-5948
3682,-3551,-4481,13279,1594,6015,5335,1036,-127
3682,-3089,-3064,12302,2080,5996,4625,2673,-1981
3682,-1900,-1178,11590,2425,5266,3096,4200,-3321
3682,-519,4233,14753,6596,-315,-18525,-2405,-2132
3682,-2138,-610,12369,816,3219,-1181,-664,-2266
3731,-1689,4023,9688,2504,2474,-17,-1319,-1722
3731,-1985,985,7414,694,4252,4492,277,-2081
3731,-311,2779,7091,4709,3508,-5169,-94,-1917
3731,-558,548,12317,168,-2946,-6446,729,-2370
3731,-39,65,12586,-2282,-3436,-4749,2625,-4866
3731,-1372,-815,13935,751,5412,5332,828,-4222
3731,-1153,-827,13041,1525,6719,3198,352,-3413
3731,140,-923,12784,3670,6790,694,114,-2641
3731,-17,-1507,12550,2174,3152,5299,3188,-4649
3731,-1821,-908,12244,2823,2785,3808,3244,-5710
3780,48,511,12182,-359,-376,3286,-5132,-1516
3780,-527,-430,12126,-3593,558,6401,-3262,-335
3780,-1390,2638,13437,-693,-1003,-6201,-3284,727
3780,607,-2160,14235,211,2669,6023,3194,1097
3780,-767,-2130,13963,1709,1516,4180,4163,86
3780,-1119,958,14706,-5564,-1849,-3672,1519,-5438
3780,-1416,701,13964,-3791,-705,-3911,1706,-5057
3780,-936,1003,13238,135,-476,-6105,1594,-4812
3780,-1256,-5933,9437,1904,5089,5614,1297,-4163
3780,-1820,-6320,9684,2138,5391,5008,835,-2742
3829,-1591,-288,25299,5724,4976,-9253,-1181,-1905
3829,-2381,2311,23468,4793,3380,-8142,-1258,-1276
3829,-1380,4184,20538,3181,2388,-5663,-2629,-159
3829,-1258,-4451,11015,4021,7247,13477,2859,-4298
3829,-2042,-3157,10891,3328,5991,11853,2508,-3428
3829,-718,-228,11765,-6420,6343,6866,-252,-6475
3829,477,-714,11770,-7252,6598,4992,-1301,-6353
3829,43,-476,12104,-7599,6893,1615,-1745,-4811
3829,-1547,2173,12591,3903,2796,-4994,1221,-6777
3829,-1491,1678,13039,5031,2532,-6335,660,-7059
3878,-607,1276,12953,2067,3702,280,-2782,-371
3878,286,-1014,10938,-271,4226,6939,-2225,-333
3878,-979,458,11183,1743,2389,274,-3663,1869
3878,-694,-757,8817,-3703,-1940,2598,-1893,-793
3878,-1665,-1247,10579,-3726,-85,3016,-1717,-1417
3878,-588,-2795,11668,-1288,991,8722,2363,-3286
3878,-2241,-2120,11312,-301,329,6385,1704,-2723
3878,-348,1494,12819,-12397,-3713,8746,1383,3141
3878,-1994,1954,11890,-11686,-2487,7035,761,3954
3878,-679,1209,10726,-8306,-2121,3357,960,1915
3925,43,784,12851,9684,-1194,-11027,-1914,-477
3925,272,744,9870,8993,-1282,-9267,-799,424
3925,38,-916,8812,-4072,-1029,5283,1473,-4881
3925,-116,-1289,8218,-6154,-2183,4183,1812,-4724
3925,-2287,-693,10732,1987,1375,4405,3402,-4839
3925,-2015,-510,9996,1410,1335,5921,3733,-4132
3925,-1504,-549,9309,1367,977,5551,2406,-3702
3925,-750,-5167,10981,4744,2799,8622,2601,-4533
3925,-1693,-5301,9875,124,2435,11608,2430,-4363
3925,-1175,25,8242,-153,3269,6778,1004,-4677
3973,-2420,955,11293,5650,82,-10963,-1073,-1882
3973,-775,-695,9011,2285,1686,-2303,-445,-3410
3973,-946,-5507,13367,7319,4372,-8010,177,-7492
3973,-1810,-4550,12351,7035,4701,-5054,484,-6825
3973,-790,-1505,6752,-494,2554,5693,-1361,-1287
3973,628,-1051,6328,-1374,2648,4740,-1542,-1072
3973,916,-353,6152,-1801,2612,3203,-2029,-955
3973,-246,-1631,9830,-1657,324,-1,-2352,-1791
3973,-998,-1067,9237,-1817,1492,-1144,-1449,-1580
3973,1480,-3515,9828,4480,2648,4650,2050,-4069
4022,176,2103,8811,-5651,-1315,-5249,77,-4153
4022,-1019,1370,7429,-6802,-840,-2741,-1223,-3548
4022,-175,-1259,9721,-731,3179,-530,-467,-1021
4022,-595,-1180,9117,582,3686,-1137,-1800,470
4022,482,3608,6500,2107,-3535,-6584,6519,-7718
4022,-981,1600,5524,2229,-2756,-6099,3586,-6013
4022,-1054,327,5123,2717,-2698,-7303,1376,-5215
4022,1102,3131,1056,-1023,-2826,6651,1391,-1030
4022,1286,4209,1721,-1345,-3541,5983,1412,-2444
4022,191,-2664,7522,-214,3763,3737,1859,-5840
4071,-915,4484,6669,2801,-658,-13165,-126,1599
4071,-894,3827,6829,2461,170,-10403,898,-1812
4071,532,-2102,3897,-404,8442,9851,1784,-4362
4071,-818,-2971,3549,-1269,8705,8898,1055,-3786
4071,-559,-3632,3567,-452,8423,5332,73,-2842
4071,-657,-1284,5694,-2935,5164,7407,1885,-3263
4071,-448,-849,6416,-2869,8598,5487,1481,-2965
4071,-2080,3522,8544,-1378,-1460,-6556,-9163,6452
4071,-2185,3043,8494,-860,-2934,-8178,-12118,7089
4071,-1348,3132,946,5819,-698,1854,-1446,-1943
4120,-904,728,3747,-7829,2171,3756,6869,-7292
4120,-1167,-1471,3693,-8303,3548,8072,6366,-6327
4120,-1105,309,5042,-3769,-1340,326,-182,-3323
4120,-947,2235,6010,-549,-2217,-9325,-1025,-3083
4120,-170,572,5711,-1506,-963,-8920,-516,-2841
4120,-212,-5823,4587,-2284,1509,7036,1433,-2911
4120,-568,-3409,4485,-3267,1465,6020,1243,-2393
4120,748,893,1033,-272,4849,4011,-3710,-3012
4120,-488,1041,696,-207,3486,3550,-5352,-2276
4120,-1056,1256,7630,6348,4558,-6523,-2423,-2504
4169,-784,6491,2597,-2025,-2120,-6753,-2082,2010
4169,-717,2977,740,-2892,1367,3175,-1569,-729
4169,-2363,-6783,4702,2995,1330,3431,3362,412
4169,-2878,-5471,4984,3429,2768,2915,3067,-547
4169,-1976,-3218,5377,4362,4093,817,2780,-2360
4169,1019,2170,3996,18,1319,-326,1487,-3690
4169,-224,4492,3034,-1974,-1231,-6739,424,-1922
4169,-278,-3187,-2272,-7032,-1218,8295,4142,-2245
4169,1110,-2587,-1041,-5606,-1043,6144,5711,-4953
4169,41,924,-347,-7130,1584,4516,1607,-4333
4265,108,2473,1335,1445,-1335,-4267,-188,1069
4265,1986,-501,2207,6082,-1204,-7016,-256,-2434
4265,-1267,-2867,2919,2221,-279,4300,6631,-2319
4265,209,353,2478,5177,-449,2646,5809,-2314
4265,-1687,-4517,3085,-2679,791,7716,1611,-3417
4265,-206,-3418,1910,-140,2541,4831,1069,-3190
4265,8,-2327,1108,451,2410,2541,458,-2819
4265,-735,-1989,1746,330,-355,-1031,1526,7645
4265,1266,474,1325,-130,934,-1128,3019,3218
4265,-85,-2520,3244,242,5625,2821,2026,-4632
4313,-1802,2995,3796,4779,-10731,-15168,-860,-3687
4313,-1523,1867,2473,5202,-7495,-13551,-948,-3039
4313,-9,-1095,1513,-8998,2197,7004,2842,-4396
4313,313,666,800,-7071,936,5185,2488,-4216
4313,-2086,-4576,1357,-9991,121,3947,-246,-958
4313,-2128,-4211,1594,-6321,1523,1775,-412,-403
4313,-1472,-3580,1959,-3881,2018,-1142,-607,-114
4313,-1528,-4107,746,-6269,-3456,5890,-5414,-626
4313,-1486,-4500,1582,-4595,-5602,4627,-4891,527
4313,-899,-1906,-1639,-6586,1715,-1115,2769,-3451
4362,508,-1531,1099,-1624,4145,-1918,-2830,-1919
4362,568,-1497,563,-3292,1825,535,-3628,-703
4362,-1185,-314,3571,2001,151,-9355,-2058,-1841
4362,331,892,3402,2229,-508,-10353,-2344,-2550
4362,-234,-1422,-712,-5027,-318,2507,3285,-5011
4362,-2064,-1299,-865,-6309,-1700,2125,2661,-4411
4362,-1699,-570,-1246,-5364,-3523,-161,2013,-4353
4362,1121,-4938,280,2601,1552,823,-35,-1562
4362,456,-4601,911,1991,1464,-174,476,-1630
4362,-516,-2364,2264,-5120,3196,6410,-1882,-145
4411,-460,420,1671,-3022,173,991,1079,716
4411,691,-1208,-278,-6808,823,8136,1556,1188
4411,1047,571,-1932,1072,902,1093,-7367,-1631
4411,1033,622,-1928,1905,762,-536,-6414,-632
4411,-326,3125,2126,6049,910,-11435,1244,-3574
4411,-43,2945,1169,7339,-144,-11198,1482,-2840
4411,1177,2683,534,7481,43,-11040,1421,-1905
4411,-571,-144,-3941,-5071,-2091,3378,3188,-4853
4411,33,-112,-2925,-4275,-2741,1847,2375,-4260
4411,234,-7,-2601,-460,792,3036,464,-3575
4460,617,4684,208,1114,-3507,-12036,-1603,-1472
4460,1018,3560,387,-320,-2877,-7676,-2021,-557
4460,57,-3161,-2195,-5631,-2921,9977,2453,-3573
4460,-139,-3162,-1494,-5863,-1908,8421,2119,-3176
4460,-238,-2278,-919,-5194,-1534,4818,565,-2417
4460,1335,-965,-703,-5204,1532,3202,2309,-904
4460,1317,-438,-37,-4875,757,2373,4271,-1459
4460,-963,130,5146,3140,-1094,-12666,-1063,2172
4460,-1282,555,4786,4383,-1425,-11166,-532,803
4460,665,1089,-1086,-5366,1727,3206,3182,-4626
4509,210,2684,607,5601,-1973,-9306,-670,58
4509,1245,-4225,-427,-2604,-756,7276,667,-1554
4509,-1368,-1730,-2508,-6474,-4593,3300,132,-603
4509,-946,-1343,-2566,-4485,-4310,2458,726,-2688
4509,313,-512,-1972,-1872,-4005,-684,873,-2857
4509,531,2381,-5241,-3583,-135,6976,-671,785
4509,-264,432,-3937,-2340,709,6760,-4222,3143
4509,775,1184,-2381,-4190,-6244,2146,6321,-5771
4509,745,715,-1150,-2661,-3543,568,6509,-6417
4509,-1502,-1655,1746,-1416,-3539,-5935,928,-2404
4558,156,-1671,728,-558,-93,-5381,-1147,-2314
4558,-1554,-3970,-483,-3208,1624,4055,-310,-2144
4558,-109,-1756,-3525,-6327,-540,2881,1872,-1778
4558,-187,-2448,-2949,-6402,-21,1944,332,-1064
4558,-361,-1821,-1497,-5795,5,-423,-1115,-358
4558,170,1334,-2990,-899,-757,701,268,1072
4558,-28,884,-2057,4045,-468,-4038,574,-1463
4558,1615,-1455,-1983,-719,4266,4015,-2959,-7043
4558,-66,-1772,-1545,125,3940,6443,-1500,-8613
4558,-1018,-1832,-126,-1977,2334,371,-3836,1290
4606,-81,-1322,408,-3643,-52,-5818,-4052,4625
4606,-979,-110,1607,2739,-3017,-16316,-5649,5778
4606,-293,5394,56,3885,-5098,-15763,-1805,-3491
4606,962,4639,-236,3777,-5484,-12983,-1499,-3302
4606,-230,5916,807,5568,-5348,-18517,-2051,-2827
4606,206,-1872,-2025,-1595,1565,4541,715,726
4606,-1330,-3244,-724,-754,1357,1106,1383,-89
4606,-1498,-4037,-393,-1981,3293,8360,1760,-2585
4606,-1435,-3676,-225,-1827,3312,6625,1636,-2543
4606,648,-2503,-1635,-5295,704,5555,2156,-1172
4655,1140,-4144,1459,-3840,-476,2192,5770,-4629
4655,694,-4569,867,-6066,730,5552,4202,-4674
4655,-2071,-3642,-4255,-5397,3984,2006,-11632,10721
4655,-2015,-1970,-3610,-3480,3130,1257,-10998,11925
4655,-2039,-1018,-1901,-2155,1492,-921,-9520,11460
4655,1608,7252,-437,-12,-7076,-13488,5580,-9406
4655,1602,5053,-4021,-5897,-3293,5242,6391,-9135
4655,-18,-1652,1192,-4913,1988,2864,2910,-2986
4655,-1094,-1023,390,-2769,1848,865,2684,-2764
4655,609,-5514,-5131,-595,-1117,-288,2491,-3134
4703,-332,2090,3197,-4064,-8045,-9724,563,-1215
4703,-509,2273,2911,-7223,-6317,-5824,292,-1260
4703,1967,-1857,-2523,-1598,1877,6616,2973,-4030
4703,603,-1786,-2206,-2245,1311,6370,3124,-5455
4703,199,-1730,-1477,-1140,802,3625,2209,-4354
4703,996,-1853,-3989,-11805,-1988,3030,6369,-4262
4703,616,-2294,-3176,-9919,-753,2855,5982,-4398
4703,825,-4182,-713,-5994,-410,8431,-1435,1083
4703,607,-3973,-966,-4860,1052,6658,-981,1050
4703,-1279,-1618,-476,3348,3173,-2405,-938,-8267
4751,214,936,443,2511,-3227,-10930,1399,-1780
4751,286,400,-1085,188,-5224,-5476,1670,-2445
4751,-680,4833,2662,9703,-3446,-19791,-804,-370
4751,152,4476,1794,7630,-3132,-19595,-806,-175
4751,900,-534,-4048,-4721,2754,8607,1922,-2342
4751,-97,-455,-3452,-5700,592,8262,1445,-1809
4751,977,-485,-2943,-4409,-651,6436,-849,-1162
4751,-1281,-2052,-824,-4790,4261,2527,2651,-2946
4751,-288,-1379,-1616,-3699,2200,2087,2487,-2078
4751,-520,-6016,144,-6870,2894,6499,-929,1257
4800,-501,-1054,1625,-1107,793,-2354,-1312,-232
4800,528,-2771,843,-4624,2101,5115,-990,-331
4800,305,-5803,-76,-3707,160,2800,414,-1052
4800,318,-3922,103,-3642,244,2453,-217,-1065
4800,-990,-700,208,-3310,-220,378,-2101,-870
4800,-778,563,-135,7273,1863,-13535,-6048,6266
4800,723,2368,-1927,9482,291,-13009,-6945,5661
4800,-1775,-1984,-1107,-3679,-147,6045,1377,1973
4800,-1297,-2032,-1059,-3323,-22,4817,1512,2222
4800,-1059,-2032,-2353,-5801,-981,6080,2125,-2817
4849,460,3211,1113,180,-865,-10259,-389,-1777
4849,-1161,2402,687,-1721,-763,-8335,-363,-1660
4849,189,-3378,-2896,-13002,-944,11419,2824,-2430
4849,-1362,-3507,-2391,-11032,-925,9316,377,-1205
4849,-1508,-3796,-1960,-7847,-1190,6151,-3647,-242
4849,95,-1339,-2857,-3714,-3963,2536,2010,-1408
4849,-822,2769,-1784,-321,-4489,-10225,-413,-965
4849,-513,2208,-2057,-252,-2814,-8719,-393,-763
4849,715,2156,-1413,382,-2134,-10139,-574,-521
4849,-701,-3662,608,-7634,-1776,7205,-3915,7324
4898,-1885,-624,-4327,776,2150,-1649,1173,-543
4898,-1668,-3357,-3846,1427,2042,7632,4400,-1285
4898,61,-811,-1831,-5552,-630,3583,1932,-2617
4898,524,430,-1777,-5424,-3140,3938,1815,-2369
4898,1277,-1190,-5139,-2257,2170,7012,1558,2566
4898,1066,-332,-4133,-2335,1727,5039,1638,1470
4898,452,-2146,-2198,-5599,-300,4127,5525,-4197
4898,548,-1490,-2390,-5157,-495,3441,4690,-3572
4898,-894,-387,-1888,-3876,25,554,3020,-2904
4898,490,-513,3088,567,-2174,-9637,830,-1148
4945,-1058,1785,-44,-20,-3890,-11794,-1009,-2934
4945,-1184,-7331,2155,-1702,-8,1978,-1944,-250
4945,-850,-4058,2687,-1263,417,2134,-2679,-153
4945,54,-252,2852,92,1617,970,-2882,-323
4945,-338,-1768,-4280,-2073,3012,-4491,-13378,7759
4945,766,-2194,-3983,-1926,3581,-3535,-12373,7885
4945,360,-2431,-771,-5375,-999,8341,2456,-4028
4945,350,-2121,-774,-4177,-2348,5591,2346,-3674
4945,-433,3489,-3204,778,639,837,4605,-6232
4945,-768,2817,-2955,-1598,433,316,5083,-6062
4993,-672,4320,-2813,707,-2288,-14042,966,-1698
4993,-368,4803,251,-748,-2205,-9232,-875,-3137
4993,-719,2113,793,-703,-1930,-9175,-2131,-3023
4993,176,-131,1995,-392,-1518,-10172,-3656,-1695
4993,3,4266,-2603,-5252,2216,9685,-1777,762
4993,-539,6346,-2682,-3446,2611,6044,-2692,1860
4993,-37,2275,-4823,1509,-349,621,-279,712
4993,-165,3230,-4708,1773,1351,-81,-1438,3388
4993,-993,-3925,-5275,-5069,-3800,6444,4548,-1805
4993,-295,-3273,-3851,-2368,-2729,3584,4643,-2161
5051,-1935,-5342,1361,-1403,2735,-685,1074,-353
5051,-14,-3512,-1574,-3200,416,-381,945,-2006
5051,721,-4256,-583,-4688,2234,115,788,-1586
5051,851,1901,-896,313,525,-11443,1235,-1942
5051,725,219,-953,45,206,-8233,2659,-1782
5051,844,52,-1120,986,-1015,-7857,3640,-1984
5051,1562,-719,-897,-5632,-949,7977,4851,-1892
5051,1513,-1972,-874,-5341,-1153,7282,3210,-2486
5051,811,727,-2662,-3447,-2053,2160,480,-1840
5051,-1016,1172,-2416,-2691,-4596,1281,298,-1231
5100,-642,-3304,2060,-751,3244,-1665,-3696,-120
5100,-400,-4962,1639,-1988,3682,4370,-4101,-226
5100,729,-2870,3146,1065,2709,-3080,-4634,139
5100,-1714,1576,-3713,-6719,-1718,5265,3057,-3437
5100,-1447,1472,-3520,-4863,-50,4022,3791,-4686
5100,-177,1719,216,626,-511,-10097,-905,1435
5100,-648,849,649,2698,-2021,-8044,-686,624
5100,761,569,1541,4047,-4057,-7240,-196,-282
5100,-88,3633,-5153,-11037,-2191,13207,6812,-3137
5100,-804,2864,-4051,-11816,-2159,19183,6598,-1418
5148,19,1120,-718,33,-1865,-11446,-1721,-36
5148,-1116,4428,39,-1230,-4088,-15986,-2219,48
5148,-740,5408,-236,-4058,-5134,-13464,-1996,-93
5148,-893,-7385,-463,-7104,-1512,12615,-592,-1121
5148,678,-5774,-426,-6229,-1993,9932,525,-2139
5148,-2478,-4631,2410,3650,501,3748,-1442,5848
5148,-2134,-681,1070,484,1322,5175,332,3447
5148,-45,4060,-1311,-830,1954,4157,3207,-2470
5148,86,1318,-1403,980,-3209,-10613,-1342,-156
5148,-1052,1821,-1125,1602,-2477,-11290,-708,-125
5197,-501,-1857,-1882,-74,1237,3325,-11887,8068
5197,-2288,-1489,-1663,-2001,755,3295,-8811,8602
5197,-1095,2153,-912,-511,-1724,-8855,-6894,8492
5197,1207,-3475,-341,-723,1284,548,-2863,-2688
5197,1063,-3071,-546,-1692,2124,366,-1829,-2199
5197,-960,-7926,-29,-8139,-184,9144,3103,-1074
5197,-674,-6719,-62,-7211,-3983,7993,3640,-532
5197,-1177,-4605,-701,-4406,-3418,4355,3034,-105
5197,170,-193,-1625,-6768,1819,2867,1668,-1848
5197,2003,-75,-1793,-7634,1944,2422,1620,-1844
5245,1077,3468,-2790,3014,1299,-20863,-1087,5487
5245,286,4037,-3956,2114,-2695,-7833,-423,3740
5245,423,2062,-5256,-1972,-5228,15050,1318,1576
5245,-101,557,-3677,-2613,2034,2128,-3002,-732
5245,-27,1035,-3700,-3028,-1002,1623,-1756,-274
5245,-1158,-3836,785,-2976,-3892,259,6032,-5407
5245,159,-2239,2104,-2706,-2550,85,4710,-4511
5245,-715,-1509,2977,-1928,-1570,-1488,3250,-3722
5245,-1176,-4884,-2891,-10767,1299,11058,3491,-3008
5245,386,-3868,-2647,-5154,839,7978,3141,-2918
5294,25,629,-748,5479,1238,-11932,1381,-4783
5294,825,-1646,-1235,1917,3036,-2938,2567,-4001
5294,-664,-3386,-1484,-1021,3055,3186,3074,-3222
5294,-364,6487,-992,3328,-2104,-18470,-715,-69
5294,581,5572,305,1419,-3663,-21055,-1453,-497
5294,-1062,-2812,-1174,-7995,-4426,13315,-2097,1516
5294,-1624,-3371,370,-7893,-2990,11773,-3402,2239
5294,-1107,-2614,1058,-5333,-2834,8538,-5073,2780
5294,85,-2715,-2069,-4335,1873,-13303,2807,-6821
5294,4,-2677,-2169,-4293,2142,-6491,2738,-6939
5343,-835,2341,-973,3975,-2589,-9778,96,-1199
5343,-539,-279,-2293,-2279,-789,176,33,-1209
5343,718,56,-1869,-3766,-1204,-2260,-2122,-703
5343,964,2251,-2261,-6972,-549,5141,-600,-821
5343,1164,2013,-2295,-4717,418,2910,-558,45
5343,-58,5623,2549,2228,-8977,-19992,-7177,-401
5343,1058,5425,2472,3935,-6862,-19462,-8353,1106
5343,601,3288,1040,2961,-3759,-13400,-7186,1694
5343,808,-2208,-2569,-4188,3418,9207,1416,467
5343,-519,-1696,-2214,-2863,4606,7783,765,1097
5392,-589,3741,-3371,1479,-2655,-10776,1970,-3273
5392,-397,3695,-2864,312,-2003,-11303,916,-3236
5392,-178,3003,-2210,-1912,-1225,-9255,807,-3388
5392,168,1716,-4588,-2447,3539,9489,2251,-2628
5392,223,1613,-4915,-2785,3225,8401,3170,-4555
5392,-1224,-7811,3248,-6332,3266,5091,3473,-4085
5392,-1372,-8143,2378,-7525,630,4070,2441,-1902
5392,-137,-6552,868,-7367,-2129,3116,1758,-885
5392,-1186,-1391,-2247,232,-1834,2239,5053,1582
5392,-1492,-4459,-2241,-4128,-1458,9388,5173,564
5441,-269,498,-2224,5051,5345,-5036,1562,-1257
5441,-387,-798,-4042,1930,5580,2512,3533,-4452
5441,-1297,1460,-2424,3304,3942,-3053,3745,-5823
5441,-211,1923,1050,-1671,26,-4764,1390,-3773
5441,1469,1060,1590,-1904,1409,-3081,1028,-3309
5441,-980,-5010,-4686,-5368,-3741,10022,-3411,5349
5441,-938,-4533,-4687,-4423,-3156,10123,-2032,3639
5441,351,-1515,-4397,-3654,-2973,8092,-1092,1229
5441,-503,-335,-2101,2747,-1409,5276,8697,1109
5441,-1215,177,-1901,1550,482,5186,9058,504
5490,1840,344,1487,1570,-827,-7369,-3255,250
5490,1204,-1144,-51,3121,1212,4370,-498,-321
5490,1776,1357,2242,6322,-1051,-9447,-1124,-183
5490,-291,-1403,-1223,-5023,2335,1727,645,-1307
5490,-346,-1125,-1079,-4425,3374,1468,859,-1161
5490,225,3853,491,781,-1008,-7083,3464,-2357
5490,423,3452,745,496,-726,-6432,-609,-3086
5490,271,2380,864,629,-881,-6914,-6846,-3779
5490,-2760,-6514,340,-1101,-399,4870,1391,-574
5490,-2089,-4839,31,-1729,-885,4635,1033,-47
5539,-1422,273,-3667,2564,-820,-9195,3342,-1169
5539,-1355,371,-2721,-167,-44,-10453,1114,-2597
5539,-234,-635,-1295,-5194,589,-7059,233,-2806
5539,793,-4268,-2938,-4410,1830,7205,1462,-424
5539,570,-5278,-2369,-2499,2643,5015,2224,-854
5539,-1203,-1818,-2680,1236,1307,825,-427,-685
5539,-310,-836,-3018,-1085,1914,1698,-635,-400
5539,-1486,572,-2367,-3339,795,1045,-708,17
5539,-897,607,2888,-870,1220,-5318,-2010,-210
5539,579,1679,2105,-260,-2178,-6355,-3553,13
5587,-597,3883,374,-2545,-326,-6113,-4345,9376
5587,-29,19,-485,-4962,-160,5,-2904,10704
5587,-626,-2999,-1004,-6581,-484,5642,-915,9031
5587,305,81,-4420,7367,-1030,1601,3268,-2572
5587,79,-41,-4715,4274,-4226,2317,2486,-1805
5587,-46,-7277,-315,-4449,3895,11125,-1251,-462
5587,-262,-6066,700,-2687,2857,8435,-1919,-455
5587,-758,-4415,2575,-1928,2270,5026,-2166,-77
5587,-1554,-639,199,-3045,-956,3030,-502,-5760
5587,-976,-3189,1052,-2839,-607,2007,123,-4393
5634,-76,2247,-1208,-217,-544,-9937,-1381,-1894
5634,438,42,-1644,-53,312,-7352,-3955,-565
5634,-1314,-953,-851,445,698,-5492,-5597,1144
5634,-185,1738,-2672,-14,-968,2756,-2247,802
5634,-1397,3463,-3148,2772,775,1924,-1444,3334
5634,-1224,262,-3354,-3360,-3762,2868,1387,-5711
5634,-424,-983,-1290,-4955,-4303,1301,1646,-4653
5634,-1651,-4715,-699,-994,4126,4515,-3638,-1702
5634,-2076,-3581,267,1475,3745,2760,-2071,-1885
5634,625,1913,-4840,-10065,-3884,6746,3587,2281
5683,-623,-105,-137,-2202,5,-1346,3714,-5506
5683,367,-1091,-759,-3078,-53,3366,3776,-5489
5683,250,1242,3273,-1767,-3016,-936,-1608,-1866
5683,-56,2237,2683,-1049,-2276,-4350,-2389,123
5683,-551,-2184,535,-482,77,3475,2251,-878
5683,-321,-2680,1092,-226,-1410,3101,2133,-1128
5683,859,-2159,1464,-251,-2908,1900,1621,-1318
5683,104,-1251,741,198,4471,312,-2905,-902
5683,608,-702,1758,-817,5316,632,-3189,-146
5683,-1793,-1768,-4833,-131,823,4235,4769,-5949
5732,796,-957,-1818,-3669,-3714,3803,994,178
5732,79,-1331,-1439,-3658,-3352,1789,1040,36
5732,711,-1601,-1779,-702,-2066,480,1794,-241
5732,613,-840,-2326,-1335,-3186,2985,2637,-1710
5732,434,686,-2743,-3108,-4454,1020,3505,-2481
5732,2289,6437,1738,-153,-1315,-6188,3272,5163
5732,1822,5178,2124,225,-734,-6290,571,3929
5732,-671,1544,-1555,-5322,-530,-1245,-652,-823
5732,675,-703,-1537,-3891,920,-2247,-1486,-825
5732,669,249,6456,3851,4130,3517,148,2196
5781,533,1341,-636,1653,140,-12144,2528,-541
5781,-496,1804,1453,-98,249,-12475,925,-783
5781,-1066,-3486,210,1486,1841,6413,-2018,2057
5781,-1111,-2814,1178,328,2164,5328,-1089,-265
5781,-1361,-1583,1949,-1619,1160,3114,-807,-1070
5781,-1630,-2080,830,-1435,-1591,1780,-881,-96
5781,-1080,-731,109,16,-974,276,-907,-797
5781,-213,1374,-1399,-1589,-1107,-3137,33,-152
5781,519,654,-1201,-1440,-6523,-3791,-145,-239
5781,-876,1704,628,-872,1167,2756,-2253,3074
5830,609,684,-3319,6139,3067,-7885,1488,-7134
5830,481,-1231,-3864,2663,3449,-2406,35,-4637
5830,-335,-1686,3200,1045,4112,-270,-2755,934
5830,325,658,5189,4399,-257,-11806,-4202,1395
5830,-1062,672,4799,4373,-2132,-13179,-5584,1778
5830,-397,-2727,-760,-6807,677,10441,5115,-4479
5830,737,-1524,-1052,-6890,140,9376,5117,-4007
5830,-475,1945,-1212,-2276,-1277,2831,49,1495
5830,932,1591,-1526,-1641,-1300,2247,58,1719
5830,-432,-1715,3691,-2302,-8256,-6021,-7100,3144
5879,-1053,3240,-1892,3867,3051,-5439,6736,-3714
5879,-510,52,-1842,574,3446,4038,6708,-3584
5879,-2066,-2505,-1616,-3064,-2012,5289,2516,-3072
5879,-2069,500,-2180,-3587,-1615,4464,663,-1639
5879,-1145,2924,-2778,-3960,-1630,2725,-90,-824
5879,-1239,-1846,1976,-2258,-4163,-2466,-5291,-2284
5879,-914,1460,3041,-1276,-4318,-13316,-11424,300
5879,195,-3366,470,-6771,1916,6952,3122,-8429
5879,-203,-3150,34,-6994,1657,6041,4001,-9509
5879,829,-2544,-1815,-260,2981,2217,-1142,-629
5928,662,1147,2195,4044,-3419,-12777,2629,-1451
5928,308,1621,2575,4058,-1112,-8918,1115,-2077
5928,-101,2424,3315,5080,-446,-8914,-248,-2003
5928,-1409,-4209,-2476,-3587,-1445,8184,3527,-1432
5928,-1665,-4996,-3629,-2284,-1274,4784,1037,-124
5928,-2893,-2531,1905,-1804,-4002,38,2299,-2923
5928,-1726,-189,1658,-1267,-4024,-2545,701,-2224
5928,-930,2618,921,3680,-2152,-15551,-7733,2948
5928,-615,3234,137,1117,-4189,-12895,-8379,3207
5928,733,3548,85,1482,-4383,-12272,-9143,3813
5977,-2520,-5731,795,504,2920,6830,2637,1006
5977,-2040,-4595,596,-563,2349,5858,1607,2798
5977,104,-971,2345,789,48,-5192,-1669,3437
5977,1185,-1488,673,3220,2945,1750,-810,-3726
5977,737,-650,104,2070,2927,1135,-1498,-3333
5977,-95,-3148,-3322,-1091,6702,13722,4219,-3929
5977,1361,-2880,-4043,-1878,3212,11354,4201,-3740
5977,600,-6005,-1631,803,-56,2964,3174,-3263
5977,-1144,-7405,-256,1285,-760,2704,3154,-2821
5977,-1116,-6347,893,1878,-1453,499,1779,-1776
6025,-1401,1482,2164,-377,-1574,-8947,-6517,3909
6025,-1344,1083,1316,-1482,-2410,-6455,-5384,3893
6025,1329,933,-3987,-1000,621,3320,-3439,3241
6025,-116,1065,-3656,-54,-249,2711,-1699,3501
6025,-395,1623,-2892,971,-1319,726,247,2467
6025,998,3372,-4994,5919,1757,1465,4896,-4285
6025,1093,2802,-3761,7562,2080,-524,1707,-4319
6025,289,1791,-301,-5800,1079,11286,3526,4847
6025,1020,-621,-72,-4580,1073,10260,3866,3709
6025,451,-2508,-369,-3142,-33,2012,1529,-2845
6074,-359,2560,93,4862,5874,-12626,-1421,-257
6074,-104,685,-712,1725,5814,-1768,-161,-404
6074,-55,-77,-1461,3142,3528,4672,631,-486
6074,-757,-5603,4785,-115,-2692,-7778,2347,-4570
6074,-1191,-2831,6893,5425,-4563,-18783,-1449,-4090
6074,-97,-1323,2299,-1899,-802,4844,5564,-3547
6074,-1403,-1438,528,-1250,-1375,3453,3578,-2509
6074,1868,-593,-1957,-2498,-294,2653,-1405,590
6074,897,-1640,-205,678,79,825,-3260,495
6074,-79,-1506,896,4122,-59,-2953,-4392,740
6123,-507,2663,-2677,-757,-1089,-3920,-586,-1002
6123,-3,622,-4159,-4874,-1737,4665,1043,-3082
6123,1736,1363,-3182,-4320,-2982,-249,959,-3967
6123,94,-462,1517,-2633,1512,4684,1955,-2357
6123,261,254,1783,-1673,2517,2419,1356,-1954
6123,-2012,858,5504,3523,-3693,-19461,-3789,4898
6123,-2166,1357,5517,4295,-4015,-19647,-3810,5243
6123,-3196,-5498,-505,-1077,506,7441,-2584,6087
6123,-1404,-3205,-836,1093,1804,5724,147,6299
6123,-733,-707,-1212,3030,826,3087,3099,5867
6171,-312,1714,-819,-3450,746,-4714,1810,-3944
6171,1144,3843,315,-2628,-1882,-11755,888,-3008
6171,801,3253,377,-3709,-2626,-10514,537,-2063
6171,-2174,-3669,-3440,-2254,2139,9177,1194,-865
6171,-755,-2968,-3374,-2121,-587,7050,404,-364
6171,227,7411,-6781,-12916,973,6088,5630,-8151
6171,1806,5951,-5550,-9932,1491,4169,6525,-8039
6171,1816,4632,-3017,851,-806,-4146,6343,-7971
6171,64,3775,-610,5227,-193,-12309,296,-2544
6171,112,4381,1523,8448,-197,-20868,-4286,1134
6220,-278,-2146,-1074,-6220,-2874,7146,-3877,1131
6220,-1099,-1749,-1670,-8082,-2268,10177,-2004,964
6220,218,2416,-294,-3626,-2006,-717,-1761,1856
6220,413,-2028,-394,207,885,-7780,104,-2994
6220,1509,56,1723,1149,-1016,-16004,-600,-2837
6220,-698,-905,-1360,-3418,-301,9699,897,-1921
6220,695,-1380,-1265,-4224,-976,8383,-737,-1379
6220,-1863,-4779,2389,-2850,725,6924,-5518,6185
6220,-1252,-3449,2635,-2795,-305,5821,-4463,6073
6220,-581,-1898,2767,-2101,-1398,2965,-3373,5610
6269,4,-1117,-1035,381,-1340,-2770,5549,-5917
6269,-707,-2307,-2118,-2163,-781,1698,4208,-6284
6269,304,-2182,-3045,-4465,48,7806,3576,-5220
6269,-251,-1284,-1978,-2094,-3708,4775,2663,4200
6269,-1070,-141,-1790,-3807,-5301,3341,2357,2937
6269,-1030,-996,857,3384,-1924,-11771,9,-2686
6269,2,-1268,2521,4113,59,-13136,-1095,-1364
6269,358,-2624,-2932,-2675,2118,10124,3815,-3533
6269,-876,-2926,-2111,-2587,2424,8332,2198,-3273
6269,-1469,-2521,-1347,-1469,-628,5913,1124,-2372
6318,1283,3155,1802,1424,-2975,-10411,-950,-1310
6318,-330,2576,1261,144,-2128,-7773,-3117,-1053
6318,-391,1858,896,438,-1361,-5234,-4058,-1750
6318,76,-4770,-2583,-1304,4181,14483,1501,2272
6318,-1147,-3258,-3031,-2186,1257,12405,4272,-3964
6318,617,138,-5545,-2127,3751,-762,1998,-1234
6318,1575,-1855,-3258,-2811,2678,-2716,1880,-1161
6318,302,2474,-87,5843,2903,-8789,-1945,-181
6318,-859,2972,-34,4690,1852,-8678,-2322,-48
6318,-39,3343,-23,5128,335,-9491,-3000,-246
6367,593,-1488,805,517,-3710,3181,3101,-1067
6367,-770,-3078,376,-1507,-2713,5137,3599,-2998
6367,422,-933,1355,1865,-2931,-6549,2415,-4407
6367,717,-1336,-3244,-3218,1599,5685,-2939,-1530
6367,273,-1213,-3082,-3794,407,5352,-2977,-1056
6367,814,-1463,-2099,-6280,-1243,8686,865,-678
6367,1227,-665,-2899,-4016,-470,6463,254,-1011
6367,350,-3274,-64,-7588,-3403,5065,1707,-481
6367,74,-3671,1226,-6782,-5403,5689,4553,-492
6367,-1899,1761,1835,11898,3663,-11082,-30,57
6415,149,3137,-173,3634,1201,-8039,-1793,1112
6415,-878,5861,-629,4065,921,-8093,-1965,2029
6415,-1236,-455,-2451,-3756,792,6009,2793,-3226
6415,534,780,-4342,-5692,-945,5998,2739,-2582
6415,1051,1795,-5575,-5064,-411,3819,1998,-1630
6415,-651,-207,60,539,1572,3325,-24,-251
6415,-7,180,485,272,843,1792,-468,84
6415,567,21,1968,-6503,3356,11528,594,1300
6415,-728,-2081,2396,-6649,2369,10739,2666,119
6415,-63,-2167,138,-2513,-2581,3947,2304,-619
6463,-928,-754,4897,1525,-4416,-10291,-2657,5870
6463,-762,-1683,3729,-208,-1624,-5123,-2369,5596
6463,370,2623,889,4607,1122,-6516,1536,13
6463,463,3620,712,3998,1929,-5183,2290,-514
6463,-1723,-5399,2578,-1053,1078,5564,4367,-5390
6463,-1964,-4352,2010,-456,-19,4384,2575,-3842
6463,-1423,-3442,1604,-423,-1969,2574,838,-1871
6463,-993,26,-3754,-3766,-6847,1113,-1030,360
6463,-230,592,-3972,-6262,-5806,766,-1076,366
6463,-728,-6164,2736,2185,3674,2881,-777,1313
6512,1189,5152,-2378,-7099,2287,43,-2766,-320
6512,162,3839,-4119,-8225,3568,8113,-2591,-1685
6512,588,1600,-2287,-2980,1373,1062,2334,-791
6512,-704,1447,-2002,-1841,1033,54,1817,-1940
6512,-917,2447,-4407,-1246,2574,-6222,-1116,10455
6512,-592,2242,-3811,-726,183,-5582,-838,8282
6512,983,2223,-2682,1122,-2882,-6867,-83,4536
6512,-1704,-6968,1473,1328,898,3104,-4296,-1182
6512,-477,-5514,680,901,822,2685,-4141,-437
6512,634,-3063,-456,2127,-1523,1236,-3171,-3005
6560,-1336,469,2166,3551,-508,-7714,885,-3500
6560,-1113,1741,3230,4849,-2052,-15114,569,-3745
6560,-1673,-3081,-3498,-9077,1215,6946,-1209,-532
6560,140,-1818,-2217,-7224,339,4145,-1752,87
6560,-555,-2324,-146,-6033,-2863,2578,4211,-4428
6560,656,-2094,77,-4905,-1045,1327,3009,-3548
6560,-566,-1340,947,-3073,1668,-2187,1804,-3363
6560,309,6480,-2777,-559,-3959,-4077,-4135,1398
6560,-629,5170,-3279,0,-2729,-4597,-3883,1477
6560,745,-687,-3653,-3621,-3682,4763,-3541,1004
6608,-272,-2560,-208,258,1874,-2687,-702,-392
6608,-361,-1716,2175,1429,2770,-6715,-229,-355
6608,-1233,-3675,-2134,-3214,-536,4442,2436,1315
6608,-523,-3831,-865,-2441,814,4182,3738,-2053
6608,635,-1956,-1700,1607,2445,6639,-2563,149
6608,1171,-402,-3899,961,-691,5420,-553,88
6608,625,1176,-5219,598,-768,3662,795,956
6608,-2146,-1726,1206,-10534,-1503,18690,392,-687
6608,-1762,-1106,1121,-7149,-76,10283,-1825,474
6608,-1744,-2392,1523,1312,-5034,-9464,-4442,6447
6656,-1308,-1214,1651,-678,-991,-2810,-6760,8715
6656,-477,-3562,946,-2950,506,6235,-2783,5340
6656,-970,2120,-1340,-2685,931,3831,2300,-944
6656,-334,2398,-978,-1200,774,5028,3629,-2022
6656,-2084,-2174,2976,-1942,-2342,-1045,-2412,1854
6656,-1688,-1303,2313,-332,-1988,-1488,-3833,3299
6656,788,-4878,-2872,-4137,-3813,8887,1656,-3506
6656,-258,-4496,-2729,-4417,-5398,7380,2312,-2514
6656,1007,-3589,-2295,-1992,-5983,2627,918,-553
6656,541,-2791,2972,-429,2150,1399,1370,-809
6705,283,1387,-1320,447,1803,-3273,-3898,1007
6705,-489,117,-1341,-209,2041,-1071,-6029,1602
6705,54,6456,3881,11434,2171,-25510,-2494,1545
6705,108,5003,4209,12175,2971,-20342,-3072,2166
6705,-219,-718,-3959,-1410,4003,100,3766,-2087
6705,908,1214,-4545,-1505,2639,-793,1906,-799
6705,-789,2549,-3293,-1655,1201,-2003,616,338
6705,-399,627,-1028,-2185,-3581,4484,2863,-2948
6705,-1225,1226,-622,-2319,-3484,3253,2280,-2420
6705,-1877,-2284,261,-1303,-2358,5028,7024,-3635
6754,831,-1502,3364,6398,6115,-8049,-4577,-826
6754,966,-2348,2657,2921,5553,-3751,-3206,-1152
6754,-2581,-4250,2437,1019,-2246,1746,-1428,-39
6754,-2518,-2984,2781,-381,-3243,1340,77,-1003
6754,360,6195,664,4851,-13679,-21932,2113,-2260
6754,919,4571,-23,6802,-11692,-15978,3220,-1472
6754,325,2451,-750,6736,-7323,-7278,2259,624
6754,224,19,-2771,-4589,-1858,9274,2707,-4153
6754,1631,-803,-2486,-969,2646,6918,2403,-3647
6754,438,1543,-2700,-4081,945,4943,3746,-5694
6802,93,7133,-4155,14,800,-7202,1103,-2477
6802,1593,7882,-3781,1880,-1281,-12361,-164,-1562
6802,-1649,-4903,208,-3949,1359,5323,4896,-9744
6802,-1864,-4263,228,-2537,2518,4611,3538,-6224
6802,-607,-1449,-3512,-4342,-3509,3331,2396,1881
6802,-2152,-1451,-2534,-2999,-3324,1951,2761,1391
6802,-635,1179,-1057,-4001,-1355,-4705,981,1029
6802,889,-35,-1647,-4083,-288,-3792,-2301,2262
6802,1004,-2829,-3166,-6690,2403,6425,-2637,3031
6802,334,-1485,-499,1121,3650,-3976,-3241,819
6850,-696,-226,1141,-734,-272,2664,1604,1024
6850,187,-452,956,1175,166,-1906,1829,914
6850,81,3771,-1660,192,597,3747,-437,3564
6850,1559,4383,-2509,-78,-381,841,-1766,4077
6850,1553,936,-3857,-2333,-475,5502,-763,5260
6850,1337,1073,-3380,-1236,-221,2504,-718,3864
6850,1359,-1415,1042,-1406,2108,2869,3325,-2384
6850,-827,-2628,1215,-1112,1241,1987,2531,-1981
6850,-1102,-2840,1405,-602,559,169,2012,-1988
6850,626,1672,1385,4576,-375,-6969,-259,-683
6898,-381,-1400,-2239,-4350,-3915,-3023,2157,2281
6898,-853,-2171,-541,-2374,-2702,1531,-2731,1579
6898,71,-1908,-1409,-3553,-5763,3446,-810,1413
6898,-970,-1710,-1595,-4112,-4479,3888,856,1990
6898,-1331,-2922,130,-1654,606,-5286,3839,-6114
6898,-1682,-3189,1107,-4599,1371,9036,3749,-6580
6898,718,-3439,-90,-4812,3332,5499,-2553,3202
6898,-11,-3407,479,-4049,3696,5001,-1226,2382
6898,765,-1319,-985,-2356,744,3717,299,-626
6898,-889,-1542,-867,-1983,546,2754,131,-353
6947,-815,3435,2628,6598,1146,-13825,-1646,-674
6947,78,1189,2321,5007,4235,-9106,-2076,991
6947,-1098,861,-2311,3671,-3289,-10034,-7364,2252
6947,-30,-3787,-3876,42,-545,6679,-6280,3044
6947,501,-8329,234,-1938,-3163,4629,-740,-1678
6947,72,-7840,111,-1234,-1093,3487,-357,-2054
6947,-1647,-42,-888,-5263,1820,3748,2495,-4341
6947,-1546,-69,-780,-5897,2203,1672,2706,-3200
6947,-1460,1843,2,-1535,1226,-8105,1350,-1178
6947,242,748,-2539,-1583,-1228,3499,-5099,8729
6996,-466,223,1237,5478,-1388,-6335,4070,-8684
6996,-513,-2877,605,2994,1145,281,2436,-9740
6996,621,-3510,1611,-1503,4093,3533,3007,-1337
6996,-671,-2845,2355,-449,3224,1824,1912,-1101
6996,-1969,-2198,3465,1357,-3490,-8541,-8190,5892
6996,-92,-6942,1435,-3776,-278,7542,-4808,4185
6996,1249,24,-350,43,5841,3076,764,201
6996,-511,-196,-505,-632,5931,3189,1274,542
6996,-275,-731,-460,-593,5390,2619,1711,702
6996,1610,-106,-3474,-1166,-79,-2136,-1254,1780
7044,1289,1952,770,5399,372,-5197,-4543,2511
7044,-514,842,1900,1838,-675,-5285,-4360,3083
7044,-2102,-4453,-2679,-636,501,2786,2023,-2893
7044,-2346,-4054,-2271,1325,1658,1760,1882,-1935
7044,-811,-2862,-854,-1427,3951,3148,954,-876
7044,-267,-2804,-1150,575,617,904,1366,399
7044,-153,4600,-5811,-3786,-2361,9807,1375,-2562
7044,-412,2326,-4378,-2826,-1260,6541,-1327,-1271
7044,-37,-152,-865,1737,-380,-2009,-7471,4621
7044,-100,1104,-535,1030,593,-1387,-6475,4601
7093,1325,2096,2035,-1056,-2872,-8378,4616,-3536
7093,366,-356,-1100,-3909,-1463,2019,7668,-3643
7093,-2432,-1453,4206,2661,3446,-11119,619,-519
7093,-431,75,3719,1813,1613,-10770,530,-577
7093,-221,-411,-437,-3454,-1623,5382,3207,-1836
7093,53,568,-812,-2471,-1977,2930,2601,-1897
7093,28,-1639,-2418,-1642,2102,3133,-120,-2100
7093,1397,883,-1594,-1952,296,2365,-1506,-602
7093,246,2975,76,-1507,-1283,-180,-1795,247
7093,-329,-5645,-1551,431,-7731,161,1235,2150
7142,-271,675,-522,-871,-3896,3283,2650,-4758
7142,-214,376,-1490,-3558,-3393,8021,3303,-3131
7142,-861,-1084,-489,-7615,-1931,3607,3537,-2526
7142,-536,-489,-675,-6902,-2722,3466,5052,-3681
7142,1091,3059,15,1192,704,-8735,655,1167
7142,1303,3162,501,-97,-2407,-7786,2490,-347
7142,-999,-918,-1248,-555,675,4726,-1389,4558
7142,-958,-1314,-1022,-323,2023,4312,-1887,4397
7142,-475,-1577,-189,-1258,3257,2531,-1885,3712
7142,772,-393,-2114,650,-2193,5272,1856,-1913
7191,429,3989,1526,4148,-2375,-15047,-1406,-1209
7191,1814,3125,990,3475,-1749,-11416,-1133,-563
7191,1094,697,329,-1417,2367,5537,-1456,-1454
7191,346,2221,-609,-983,965,4906,-591,-1363
7191,-36,-4353,-1373,2876,-11,14156,3706,-1593
7191,518,-3197,-1027,1499,-463,7303,3252,-979
7191,156,3832,1168,-8615,-4515,-8302,1964,-2733
7191,407,2555,441,-5594,-3994,-7050,5002,-4499
7191,252,-1267,-2644,-264,4735,1581,-6077,-2870
7191,-1042,-958,-2599,458,4593,643,-5039,-2369
7240,222,482,-1059,107,-3566,-3108,1695,782
7240,838,-876,-2139,-1121,1075,2148,906,-1395
7240,504,-724,-1986,-885,461,1346,14,-1360
7240,-411,1969,-431,1965,-4332,-8544,-1649,-956
7240,111,640,-2254,-2008,4139,4545,2233,-5642
7240,35,338,-1567,-1786,4065,4065,2168,-5449
7240,725,7015,-2540,2133,-642,4015,-3321,2398
7240,746,7837,-3888,1085,841,2679,-2292,2313
7240,-333,-1348,3714,9344,953,-9096,-1757,2110
7240,-1301,-1649,3236,10989,547,-8329,-1145,624
7289,-496,841,-877,-2509,-1595,-9863,2628,-4991
7289,-587,-5470,-649,-1423,-1001,1135,-782,-843
7289,-1724,-5779,372,-140,1098,887,-172,-47
7289,-1325,-5209,1644,2166,2947,-1608,-532,517
7289,-1807,-2870,-134,-1671,-1847,-1401,-540,-2437
7289,-660,830,963,2470,-3087,-11927,-1504,-1968
7289,-1069,-1907,-218,-5482,423,8389,3284,-970
7289,-1180,-1521,-377,-4843,-579,7049,3652,-1940
7289,-1636,-6760,1798,-2223,2247,415,-750,-1943
7289,-659,-5364,7,-2408,-2647,299,-2180,-424
7338,48,5301,-2398,1536,-9348,-8884,-8890,6688
7338,1109,-4516,-3380,-4449,3287,12472,6649,-5270
7338,838,-3396,-3473,-2386,3663,9095,4199,-3871
7338,1278,-2789,-2791,-1109,2395,6272,3298,-2745
7338,1184,4809,-2025,989,1112,766,-596,540
7338,848,6019,-2323,1783,630,-267,71,-1040
7338,1129,-3480,4327,-3995,1389,-820,2921,-2195
7338,-426,-157,4977,-975,-1145,-11737,1174,-181
7338,-2,-1589,-1572,-3177,-2461,3516,1820,-1003
7338,635,-2113,598,-3130,-1676,1796,-1891,747
7387,-433,-420,1869,-3392,-2531,4533,-5208,4628
7387,648,-303,575,-4965,-567,4781,-2883,2623
7387,-257,-3691,1588,797,1268,1366,2304,-3879
7387,1138,-2801,1660,938,2327,886,1672,-2439
7387,251,-2402,-2293,-625,-10365,5147,3487,-3679
7387,-18,-1649,-2049,-1759,-8475,3676,2754,-2326
7387,1418,-2444,833,-6118,655,1380,-404,3547
7387,-465,-1568,907,-7732,417,541,-1176,1732
7387,-871,374,963,-7989,-226,-2291,-1647,-401
7387,245,1833,293,4292,1743,-14350,-512,-1138
7435,-973,-1792,917,2983,-3153,-10591,-1123,73
7435,901,496,-3035,447,533,4546,1143,-485
7435,-15,108,-2748,1157,417,2965,953,32
7435,998,-404,-2016,1616,-470,131,455,629
7435,1185,-2714,733,3556,3224,-125,2302,-3282
7435,137,-2288,187,3619,1903,-583,2422,-1978
7435,-793,-316,-3468,-2391,-4075,3932,1293,-1306
7435,-402,261,-3271,-1551,-5546,2284,956,-1158
7435,426,-453,-797,-855,4077,1549,919,-1759
7435,215,-90,-798,-963,2352,958,735,-1352
7484,-2063,1655,43,5960,260,-7703,-1123,950
7484,-1331,2575,-742,7062,1108,-6294,-1204,1210
7484,-815,5319,-451,189,-112,-6218,-758,2419
7484,-88,6924,1012,3414,-1814,-16111,-1747,3270
7484,-883,-2030,-1019,-2864,-1493,4451,865,-2058
7484,-594,-1992,-750,-2584,-975,3836,771,-508
7484,880,-572,-868,-1792,5034,2802,609,558
7484,-438,-646,-645,-1276,4063,1747,159,1846
7484,1157,-62,-265,-531,2555,-472,-159,1784
7484,211,-2150,63,-427,1367,3457,727,-2691
7533,-2300,651,1879,-988,1020,-9398,-1707,5679
7533,-1254,-1379,-89,-4807,7454,1580,-562,3623
7533,-512,87,-616,-2224,-5444,1741,-5,-163
7533,-1247,120,-312,-1658,-4264,1343,14,-517
7533,-2507,761,1341,-1051,-2848,-7347,-1167,830
7533,-1641,3959,3960,3349,-4319,-19618,-2300,1037
7533,-893,379,-5426,-2393,-859,5740,783,-538
7533,322,-560,-4132,-2166,-1371,3258,487,-350
7533,-592,-731,-2007,-1434,-2312,549,283,-170
7533,305,-946,1495,-2039,2742,3424,930,-753
7582,1484,2972,1926,5498,-4989,-13497,-1325,219
7582,374,1164,1610,4496,-3987,-9261,-1027,1309
7582,654,-3820,295,-10933,2982,7819,1326,-2701
7582,-334,-4392,-418,-10858,267,7998,1559,-2785
7582,-1753,-2082,-414,-380,-1417,2303,-772,5584
7582,264,-1706,-162,427,-2364,1020,-678,3661
7582,1347,1092,1683,3302,2161,-7341,-443,-1565
7582,-160,489,1009,2114,1354,-4561,-303,-584
7582,1095,-1778,-590,-566,1326,4228,336,-269
7582,-294,-1463,-1375,-1958,-164,2729,269,-1430
7630,3214,1298,277,1499,-1498,-8097,-463,569
7630,2950,644,34,208,-846,-5153,-593,40
7630,842,-1464,-349,-1058,4425,1845,192,1624
7630,1857,92,1,-27,1440,-2330,-49,1133
7630,2752,-1564,-1325,-1905,951,5064,17,-646
7630,1629,-932,-1260,-1494,197,4303,-36,-601
7630,105,-4832,-712,-574,-3554,1142,-328,-102
7630,1935,-3601,-545,-2051,-2676,836,-225,-290
7630,2385,-1636,-280,-919,-3201,-1633,-535,-331
7630,3549,1484,-429,-1955,-6710,-6352,-900,-643
7679,2147,722,-3587,-6158,1389,5437,326,-945
7679,2536,800,-3090,-4962,1120,3640,430,-884
7679,4113,-307,-2130,-3292,-1900,1804,321,-2123
7679,3749,-482,-1735,-3126,-1967,1083,298,-2001
7679,3753,4177,-3624,-442,-7152,-6101,-1154,3084
7679,3089,5859,-957,2402,-7223,-15538,-2105,3126
7679,3218,-1517,-1820,-4872,1364,2614,57,1807
7679,2029,-1427,-1911,-5225,233,3088,347,1555
7679,3269,-529,-1755,-4004,-936,903,241,1390
7679,7112,-398,-1890,-3620,2271,504,-79,496
7728,2298,3520,557,234,107,-13094,-1192,3095
7728,1574,2901,-131,-177,-5774,-13075,-1433,3136
7728,4077,3664,1759,3105,-3704,-16661,-1778,432
7728,3654,3145,1116,2421,-2598,-15442,-1476,545
7728,2123,-1556,-4248,-4133,-1541,6512,1514,327
7728,3885,-1253,-4216,-3540,-887,5624,1278,443
7728,2134,-2459,-3664,-6272,946,3007,298,687
7728,2780,-253,-2243,-3169,-394,-5281,-520,1534
7728,1590,1868,-1191,-1332,-1218,-11394,-1214,1839
7728,3885,-3350,-8515,-4848,5709,5740,636,1260
7777,3488,362,1683,-1994,-2507,-3168,-577,2213
7777,1622,-2933,2278,-6447,1203,5960,495,1957
7777,2364,-1391,-8125,-5279,633,3828,361,1574
7777,3495,-639,-6806,-4513,873,2339,158,1738
7777,4963,2329,-8943,-5949,2089,11757,1341,1358
7777,4894,2574,-8640,-5809,101,9155,1408,615
7777,5076,2428,-7797,-6124,-1496,5514,1084,-690
7777,2648,-853,-8048,-4762,-1166,3105,955,1669
7777,1004,-726,-7133,-4113,-91,2140,394,2267
7777,1184,1855,-3072,1219,-4030,-10950,-1020,1459
7825,1645,1771,-3105,-1494,-2053,-8913,-1127,4812
7825,3171,1890,-3813,-3565,-4373,-8247,-929,3964
7825,2527,-1650,-255,-400,5723,3024,696,1447
7825,-330,-1317,201,607,5936,1993,363,2674
7825,2083,-419,-9190,-3970,-761,2099,522,1832
7825,2770,-285,-8526,-3522,-2226,1253,419,1769
7825,3246,90,-14621,-3799,-967,6159,1206,1709
7825,2846,445,-14740,-3014,-1765,4492,868,1824
7825,977,255,-12632,-1902,-2647,1344,312,1910
7825,969,819,-5368,117,2591,-186,84,3405
7921,2252,198,-8195,-738,2281,-784,-144,4552
7921,687,-1318,-11838,-2699,-1388,959,380,3209
7921,-214,-1216,-12056,-2065,-1015,581,360,2736
7921,1454,-293,-11943,-1276,-1316,-1202,442,2076
7921,962,3292,-3443,3588,3605,-11763,-865,3337
7921,1112,3498,-2683,3232,-1914,-10718,-732,3120
7921,36,-3503,-4295,-2690,-4354,2562,1028,2214
7921,1507,-2812,-3985,-1574,-3637,1380,1076,2122
7921,1446,-4721,-9809,-3022,573,1349,549,2492
7921,2852,-3028,-9378,-2907,-1843,1042,767,1486
7970,-420,3548,-8176,2562,-9553,-16004,-1557,6842
7970,-767,2836,-8257,1592,-8104,-13639,-1027,2810
7970,3556,-647,-8367,-2032,314,3510,945,316
7970,2513,173,-7603,-1355,905,1232,922,532
7970,1282,1013,-13089,-746,1728,2215,842,1573
7970,1210,1131,-11933,-985,652,1514,890,1338
7970,1432,2118,-5656,1457,-651,-9922,-179,680
7970,3350,2258,-5826,1357,-106,-9073,85,-114
7970,1882,-1115,-14852,-2428,263,3690,1036,2703
7970,1319,-1160,-14288,-1662,686,2802,877,2711
8019,393,623,-5910,1310,2530,-2925,-278,2621
8019,1688,-1187,-5421,-1142,3861,3456,429,3408
8019,4875,-665,-8396,-2836,1291,2878,1657,-2954
8019,2964,-493,-7393,-1827,2082,1994,1027,-1726
8019,4,-2293,-8275,-2168,-7221,4412,862,3041
8019,5,-2143,-6628,-680,-6031,2442,491,3145
8019,354,-352,-10931,-1781,-2020,1563,809,2932
8019,1741,-19,-10591,-2586,-386,1595,1035,2657
8019,2022,648,-9812,-746,2626,-315,767,2623
8019,1800,2287,-5035,2283,116,-10369,-702,3452
8068,465,-1656,-6209,4167,-1598,-7953,-589,3507
8068,290,-4693,-9102,801,-1953,1352,487,2570
8068,1865,-2127,-12741,255,5068,1932,963,2371
8068,572,-2008,-10878,-767,4679,1254,688,2729
8068,29,693,-12778,-475,3455,744,530,4381
8068,-315,1627,-12333,1045,2777,-3473,-137,5194
8068,-1380,-1865,-11588,825,-251,2229,371,5997
8068,-620,-1481,-12203,-703,282,1982,608,5083
8068,531,-458,-12351,-3137,-1344,184,492,4279
8068,971,-704,-13426,615,-3078,1524,1359,493
8117,1408,2292,-7348,2881,-2253,-15287,-1148,2209
8117,1506,1103,-6576,1680,-804,-10640,-525,1789
8117,104,2812,-16079,2264,-6472,-14102,-1437,5583
8117,640,-1331,-15769,-2677,-2573,1371,116,4175
8117,-552,-4006,-8553,-2460,1287,4045,906,3537
8117,1122,-3228,-8332,-1532,1670,2342,700,3438
8117,2576,-3539,-12258,1756,4578,1549,1047,3310
8117,2185,-2187,-8294,2882,3081,-4497,387,3446
8117,832,-1836,-12538,-958,277,3023,1060,4031
8117,1199,-1561,-10706,-920,575,2001,941,3844
8166,1961,-332,-5811,1700,-2577,-7586,-60,203
8166,1988,-56,-13465,-86,6663,2123,780,4184
8166,3181,-967,-11585,1214,8169,1350,613,3841
8166,2851,-969,-9312,2514,7900,-997,302,3660
8166,963,-3018,-11859,1614,-6011,4632,1028,5521
8166,1792,-3940,-10574,-346,-6325,7848,1310,5675
8166,-488,-1785,-12237,-53,2451,1136,398,5603
8166,-2261,-1609,-12462,678,3741,542,202,6459
8166,1634,-1676,-4601,248,-3906,-1980,666,3950
8166,297,-1118,-6506,740,-3063,-2799,144,5057
8223,2140,2218,-12600,3754,665,-10423,-49,4254
8223,-267,-2936,-17481,-1677,-2709,3969,766,5999
8223,1240,-2195,-15988,-1873,-2005,3558,1200,5031
8223,1599,-697,-17819,167,219,1656,478,4340
8223,884,-1319,-15908,-143,-979,1623,671,3469
8223,2356,-1731,-13665,418,-1089,209,826,2838
8223,2224,-3058,-17149,-580,-1587,-201,405,4547
8223,1058,-3862,-17022,-1451,-697,5012,949,4109
8223,185,-2417,-11509,1129,-537,-293,273,6436
8223,436,-2087,-8329,1745,246,-554,441,5990
8272,2160,3209,-20011,6650,-3373,-17319,-974,5814
8272,1981,2200,-18077,4445,-2626,-12861,-697,5220
8272,407,1363,-14817,2957,-1561,-9692,-428,4723
8272,2832,-3990,-12038,-8,-1157,3552,809,5530
8272,1486,-3396,-10057,318,502,3036,753,5187
8272,-462,-2884,-16321,222,-2077,1414,488,5735
8272,1130,-2013,-15752,-2806,-3160,1029,349,4889
8272,858,-936,-14196,-3501,-3242,-944,205,4122
8272,794,-4776,-5938,-2968,-305,3861,1080,4419
8272,2266,-4731,-6465,-2425,2538,5099,1301,4368
8320,708,990,-13460,5219,3130,-7053,-535,7591
8320,1437,1893,-11612,5127,2633,-10555,-1011,7217
8320,1073,-1027,-11021,1950,4562,-1531,-208,5999
8320,4083,2045,-19176,6973,-2670,-11785,-643,5068
8320,4027,1685,-18394,5821,-1178,-10660,-531,3814
8320,-1453,-3955,-13478,451,-40,7898,1139,5210
8320,-650,-4620,-13122,201,-1534,10441,1633,4659
8320,-1758,-4803,-11903,727,322,8572,1559,3779
8320,855,-4191,-12261,516,2297,3007,999,3218
8320,-708,-3452,-10783,611,1639,2253,779,3183
8369,-2304,-4100,-9445,4629,1660,322,453,3573
8369,-2414,-4612,-10103,3351,1510,2924,834,3897
8369,-2480,-1197,-9127,4326,-1543,-7873,-201,5286
8369,1829,-665,-17141,142,-4670,1242,664,2764
8369,2420,-990,-15944,-116,-5047,1158,751,1495
8369,-317,-1429,6133,7361,3707,-14164,-1104,3159
8369,1185,-1431,7796,6061,4455,-10741,-897,2963
8369,1437,-1259,7852,4801,2115,-9207,-673,2950
8369,8,-4441,-16423,174,5192,6966,784,3033
8369,329,-3434,-16368,1197,6042,4625,633,2690
8418,95,2969,-9346,9105,-210,-13789,-2454,7700
8418,-887,2336,-16554,7169,-1287,-10027,-1973,7366
8418,629,1869,-18228,5779,-1770,-8652,-1709,6110
8418,-1748,-7263,-15163,-2333,793,12271,469,6521
8418,-786,-5624,-13866,-1842,276,10010,912,3403
8418,-669,-3475,-12476,835,-2537,4124,974,2607
8418,767,-3309,-12092,1556,-1945,3411,835,2657
8418,529,-2793,-11413,3099,1012,1620,943,2367
8418,490,2218,-11295,2326,-1998,-8515,-965,3832
8418,1576,1841,-7176,2124,-357,-7354,-868,4135
8467,285,452,-7687,4118,-473,-7264,-468,869
8467,-1330,-2588,-7177,1119,2699,3548,436,4191
8467,-1162,481,-4906,4795,-267,-8893,-744,4757
8467,-1764,-1970,-14892,520,-193,3696,620,3501
8467,-337,-1841,-12864,-2018,-604,4334,866,3158
8467,4264,-1425,-19808,-1289,-4159,4782,1447,-2048
8467,3411,-1246,-16526,-1131,-3174,4283,1444,-1864
8467,794,-1263,-11601,-307,-1568,2468,1262,-114
8467,-475,-2545,-7697,402,-740,3063,304,4463
8467,1059,-2226,-6482,764,222,2268,215,3298
8515,-601,-28,-4771,2673,-4104,-7463,-961,4206
8515,-537,-454,-4118,2304,-4683,-6462,-939,4734
8515,-292,1846,-2270,5617,-5711,-15949,-1719,5420
8515,1499,-1166,-7173,-1266,196,5579,1691,1910
8515,-805,-1331,-8376,-643,1394,3931,1057,2229
8515,-692,-2949,-12983,59,-294,4384,840,3120
8515,96,-3749,-7893,980,3903,3488,643,3231
8515,-1185,-4110,-3475,3267,7383,202,-14,3714
8515,314,-4439,-10112,277,-1348,10564,1028,1290
8515,-784,-3802,-8295,866,633,7589,879,1263
8564,-1530,-3376,-3426,2985,-5171,-2724,-862,4271
8564,-1797,-4079,-7720,1738,-3075,2027,-266,4506
8564,-62,-815,-8332,4679,-2601,-6958,-910,5271
8564,-2452,2503,5474,9567,-3229,-19015,-2338,6009
8564,-1568,3591,4111,8413,-2134,-20398,-2177,3841
8564,-269,-2963,-11532,-1532,1192,6698,1201,-731
8564,1756,-2388,-12713,-578,294,5817,1341,-2013
8564,1713,-2038,-10383,689,136,3173,936,-1322
8564,-2960,-3371,-7092,2372,1840,3703,145,3166
8564,-1951,-3210,-6960,2047,1986,2639,169,2207
8613,-675,560,-4076,3349,-1922,-5909,-809,2730
8613,-323,-2445,-5369,-912,-955,4453,527,1129
8613,1822,-2022,-4960,-650,-1889,2348,543,-535
8613,-1939,-4878,-6076,1657,5896,1932,51,2139
8613,-328,-4386,-5818,1896,5100,1625,-167,2790
8613,-221,165,149,3496,-10752,-10198,-1423,3492
8613,-897,2557,3773,7642,-11843,-20252,-2637,3959
8613,273,2257,4346,8373,-10293,-19884,-2788,3744
8613,1442,-2851,-17408,3008,2769,3034,249,89
8613,-88,-2600,-14942,3567,6865,692,-118,752
8662,-574,316,-5494,6111,3073,-10381,-867,2577
8662,-350,-1073,-5697,4102,2143,-6577,-1179,2148
8662,46,-1162,-5768,3813,-1841,-7482,-2599,1931
8662,2033,-1883,-8402,-3791,-4186,11135,2049,-206
8662,1053,-1311,-6432,-2669,-4296,9124,1854,-222
8662,28,-2757,-7397,-612,332,5635,632,1698
8662,964,-2414,-7199,-361,788,5092,496,2688
8662,2143,-1297,-5414,74,-1794,2785,545,-1024
8662,536,-2373,-13924,-2142,-6141,9887,1283,-820
8662,475,-1087,-19980,-917,-6487,6335,929,-90
8711,322,-743,8230,7770,3204,-7289,-521,1662
8711,-142,-1401,8532,4913,3188,-4404,-741,3081
8711,425,-2611,7345,639,4753,578,-536,4044
8711,-1437,675,-2363,1140,-870,-7052,-1178,1704
8711,-1351,609,-205,874,-385,-7108,-1183,1722
8711,473,-5460,3174,420,5949,8683,1365,-2523
8711,-811,-4398,1686,-76,459,7587,1009,-1350
8711,-790,-1574,-9742,-1525,8382,5609,624,395
8711,666,-1232,-9433,-1808,8233,3641,316,461
8711,-311,-475,-9812,327,5011,574,-266,701
8760,101,-191,-675,4311,65,-2814,-551,190
8760,-1420,-2643,242,-41,-640,10086,665,142
8760,-1032,-2464,-816,-266,-3185,8935,475,577
8760,1413,-2143,-7697,2143,2687,3586,533,-1352
8760,675,-1891,-9855,3533,5394,2211,391,-1170
8760,863,3904,-20074,3843,351,-9435,-9,-597
8760,537,3429,-15853,3859,-361,-9061,-84,-98
8760,-959,-2435,-9827,-181,-83,3791,-674,1903
8760,-2220,-2295,-9322,-166,71,3121,77,1776
8760,-1425,-2072,-8689,442,893,1428,764,1107
8809,-173,2301,-5972,4711,-2749,-12984,-2155,3284
8809,-517,1045,-4905,2866,-1485,-8765,-1934,2916
8809,-1638,717,-2369,2586,-450,-7707,-1668,2281
8809,-4225,-6291,-2925,-3016,7835,13222,186,2093
8809,-4744,-4415,-7529,-4514,2111,10822,243,1486
8809,1084,-1984,-9465,2399,2971,4714,-174,643
8809,-161,-2120,-10130,2603,3400,3534,-84,571
8809,1216,-1530,-9662,2492,2692,1624,-182,534
8809,1419,1855,-7791,4358,-3883,-11185,-1469,984
8809,-320,1226,-5051,5221,-2233,-11396,-1935,3035
8858,953,-621,14570,6004,8885,-7533,-1690,2096
8858,256,-3432,19128,1797,9739,2879,-521,1980
8858,746,-2994,21016,1425,5873,1348,-216,1504
8858,-960,-1187,-9798,-1959,-3113,4178,-128,2016
8858,407,-1089,-8676,-683,-1929,3408,-155,1669
8858,1299,-3173,-8956,-1322,-1591,7052,-464,776
8858,283,-2826,-6193,-879,274,5405,-551,869
8858,1453,-2370,-2427,2,3561,2560,-683,839
8858,-1120,1006,-12883,3186,3477,3082,217,2688
8858,1375,2031,-15983,1828,573,2622,712,538
8906,1092,717,-8948,2361,-2244,-4797,-990,1379
8906,1526,-1617,-9969,-356,-112,5158,518,-575
8906,1565,-655,-9332,967,533,2789,770,-1762
8906,-1643,-977,-8010,1756,5695,2622,308,488
8906,-1406,-368,-10647,403,2694,1887,82,719
8906,-371,-930,-2597,3497,4463,-186,-525,-1162
8906,720,-1006,-4383,505,1185,1402,42,-837
8906,1641,-1085,-10630,-3621,-4357,7423,424,-1693
8906,1143,-626,-10868,-4528,-7261,6050,204,-683
8906,1609,-297,-9863,-2594,-7708,2460,-262,65
8955,-149,3210,-5097,9193,2246,-13287,-1861,1007
8955,589,-1060,-4058,2885,6505,1297,-229,352
8955,2002,1421,-1798,5886,4896,-8507,-1184,865
8955,-1413,4667,1101,2015,-5968,-18434,-2916,5718
8955,482,2837,-5353,2257,-3050,-9091,-1734,3998
8955,-3927,-2792,-7422,1685,-1312,3714,-294,3234
8955,-1940,-2109,-7215,2235,-1240,2339,-264,823
8955,-2339,-1659,-5325,3525,635,-73,-627,-747
8955,-1022,-1742,2407,2251,4568,2564,-116,677
8955,-1006,-1540,1183,4192,4038,1271,-244,596
9004,-248,2165,2018,6784,5490,-7805,-2536,1602
9004,371,3290,-11960,4546,-6829,-6792,-4463,3101
9004,-97,1296,-28179,929,-13097,2085,-3939,3439
9004,1473,-574,-6612,-1571,-1299,3447,1154,-2434
9004,2007,-88,-6394,-3161,-3807,2863,1051,-1460
9004,-241,3924,-3666,3109,-6384,-16734,-1667,1286
9004,-138,1937,-2217,1683,-440,-8816,-878,947
9004,548,4663,1665,5372,2064,-17853,-1784,1797
9004,-2534,-2555,-5406,3631,-1266,5628,512,3314
9004,-3913,-2039,-5707,3378,-872,4642,396,3580
9052,1674,3079,-3295,6164,-162,-12183,-1293,-351
9052,2253,2103,-3328,4726,-2068,-9763,-914,-240
9052,904,857,-3395,3042,-4305,-6876,-506,-422
9052,248,-2244,-3930,-437,-1059,7146,755,1404
9052,-795,-1268,-1411,-443,1489,6151,711,1212
9052,65,-447,-6321,2001,-3019,5885,1469,-2181
9052,-463,-1017,-4102,2373,-1383,4472,748,-871
9052,-1062,-1396,-2071,3032,-417,1681,-111,1883
9052,-307,2053,-2295,4951,-804,-11674,-1669,2143
9052,-163,-2838,-4015,-629,3102,6052,233,1374
9100,-830,-142,-4778,2371,1625,-3715,-448,1673
9100,-366,759,-8306,4457,-4947,-5942,-743,1592
9100,60,-1618,-8557,2453,-7441,1822,-71,1295
9100,611,1579,3351,10950,7354,-9813,-1573,3779
9100,-1204,1268,4527,10507,7392,-8597,-1541,3904
9100,1081,-1616,-11618,1118,-156,7084,128,1131
9100,743,-1125,-7575,1220,-1017,5312,36,920
9100,2000,-2368,-6017,304,3244,6066,560,113
9100,2422,-2010,-4204,304,3848,5004,299,224
9100,1747,-875,-3687,757,1318,2368,29,254
9149,1771,-1030,-7315,-640,1131,5365,2236,-20
9149,215,-1810,-6422,-790,543,6762,2615,-1717
9149,-1750,1057,-2693,3684,-3242,-5994,548,485
9149,232,-1276,-4116,-685,2353,353,-1203,3783
9149,-143,-1394,1061,-433,3493,2282,467,3259
9149,-1256,3518,-1058,4246,-1042,-9100,-1802,3189
9149,-1868,3365,-1720,3898,-1119,-8265,-1622,2660
9149,-876,-2952,22,2290,11704,5835,-70,1178
9149,-627,-2424,761,678,8927,5077,61,1029
9149,974,-1457,994,-1741,3218,3133,-43,1071
9198,-186,187,4482,1272,-7087,-9362,-1164,1459
9198,1042,1952,1559,2006,-13356,-11998,-1516,1487
9198,-2,1319,1428,1736,-11504,-8516,-1298,1509
9198,-332,-6361,265,-2951,1752,13354,800,732
9198,1344,-5100,-135,-1116,557,10297,656,1389
9198,-1001,-855,2656,-1914,9915,5144,157,-130
9198,-738,-1465,3690,-5819,8700,4949,113,-197
9198,547,-1452,4567,-3245,6328,2272,-108,-268
9198,-4001,2309,-2997,5017,-4056,-8228,-1792,7130
9198,-1800,1951,-2577,4373,-2673,-7057,-1198,3875
9247,-1119,796,-874,4755,-529,-6722,-2019,7727
9247,-3606,-2376,-1321,1132,-1516,3511,-1120,7246
9247,-2403,-2240,-1235,1489,-4828,2498,-972,6038
9247,2226,660,-98,891,3144,11707,1958,-1025
9247,1850,747,1836,992,2794,8803,1382,-840
9247,339,-3445,-4533,-404,-178,9316,993,-1170
9247,1886,-2666,-4207,1536,-683,7776,1209,-1815
9247,1930,-1876,-2342,3215,348,4630,992,-1766
9247,-1124,-1947,-637,-313,-869,1344,49,753
9247,-698,-1892,-165,1294,1302,493,-104,520
9295,1875,2356,6475,3786,6285,-9259,-1341,830
9295,237,2032,6198,3777,7932,-8457,-1588,1548
9295,803,2522,6701,4742,7614,-10549,-1841,2000
9295,1116,-949,-1625,1552,236,2909,2,2614
9295,-239,-1229,361,1547,264,2382,-26,2562
9295,-508,-314,-3957,547,-3890,1944,168,1551
9295,-552,-391,-3906,803,-4117,1093,-1,1553
9295,1644,-854,-2894,2622,-1463,8199,1536,-851
9295,1358,-667,-7090,3417,-2237,8247,1697,-472
9295,1996,852,-10178,2740,-2875,4102,1249,5
9344,1289,409,-2350,-113,-3670,-2893,-1169,-39
9344,1751,-396,-2642,-2906,-253,1417,-456,-583
9344,4601,2819,-998,1286,314,-8473,-887,-1631
9344,-2686,1199,2008,5689,4602,-10851,-2086,4640
9344,-1054,4550,4558,9444,-145,-21673,-3087,5761
9344,-592,-2018,-3740,1288,-278,3317,-270,1219
9344,-1319,-1816,-3912,2204,-1441,2341,-206,563
9344,440,-1099,-3259,3445,-1643,-29,-335,-3
9344,173,-1652,7642,-1091,9206,2525,33,192
9344,-1128,-1952,3682,30,4719,1447,-64,-17
9393,2667,876,2019,3372,-615,-5443,-403,-814
9393,500,-1516,-1411,233,379,4076,551,-902
9393,-646,-440,-3929,1296,-956,667,24,227
9393,-592,-2320,5868,4321,2397,782,-205,349
9393,371,-2386,4228,3264,364,1373,-16,647
9393,1459,5844,3427,5960,-4176,-21525,-2510,-130
9393,3071,3245,3019,2963,944,-11724,-1271,-2391
9393,2271,-1985,2692,-168,-197,4840,419,397
9393,1833,-2319,4392,-628,448,4136,-5,2067
9393,85,-513,170,437,1340,2789,-423,4092
9442,-2423,4664,-6062,6711,-1331,-14604,-1832,4306
9442,-2970,3884,-5171,5362,-129,-12858,-1872,3431
9442,-4430,2168,-3060,3787,482,-8748,-1494,2638
9442,1178,-1874,-5750,2310,3260,7952,761,-233
9442,1391,-1193,-5200,3062,2775,5511,460,534
9442,423,-1582,-1020,1807,-984,1831,-708,3608
9442,26,-1530,-296,1807,-2655,1842,-519,1876
9442,11,151,1781,134,-385,704,-279,114
9442,1089,-2210,1676,126,-362,663,-262,107
9442,-73,-3679,1437,-1144,1937,7141,558,-207
9491,1917,789,-2380,3546,5710,-2226,-730,1270
9491,257,-1041,-2151,2426,7690,4034,-112,1175
9491,1133,599,-701,5274,7183,-2987,-331,1408
9491,-85,4343,-9224,3612,304,-9241,-1734,2866
9491,1071,3976,-3452,3975,3293,-9931,-1671,3134
9491,1029,-890,-8658,-998,-347,6864,729,563
9491,782,-684,-8663,-768,-405,5757,549,556
9491,-1788,-2152,1810,2963,-266,2673,106,2336
9491,-2404,-2643,1489,1919,508,2664,38,2662
9491,-1727,-2382,1584,2208,1617,1034,-175,2399
9540,-1100,542,2022,6446,1157,-8141,-945,1153
9540,-14,-2173,637,1380,3705,2411,52,1448
9540,-1138,-1821,345,-1479,2142,2268,49,1612
9540,1903,1830,-8607,-1872,-1991,3407,642,945
9540,3538,1634,-5709,-775,-1480,2817,750,-884
9540,1560,2162,-17,3006,-2589,-8566,566,-228
9540,-29,1712,1096,2994,-3181,-9144,173,1067
9540,937,-2298,-2977,1008,3517,5979,1180,190
9540,582,-2125,-2948,-518,1482,4799,959,553
9540,125,-1563,-2132,-2700,98,2023,451,1106
9589,-287,3260,4472,3968,-5621,-12775,-1399,3209
9589,-126,1935,4183,2807,-3498,-8361,-878,2751
9589,-1048,1842,4231,3006,-3333,-7863,-775,2205
9589,-1409,-3734,-2149,-4125,-5895,10556,929,1934
9589,-327,-3160,-1661,-3091,-5878,8355,702,2797
9589,-356,-446,-7,-205,533,4701,674,548
9589,50,-658,834,-147,1044,4189,499,516
9589,-894,1130,8511,4299,11370,-8806,-827,1165
9589,-1436,1104,7845,4022,11429,-8201,-601,861
9589,460,1332,6054,4032,8052,-9089,-615,241
9638,590,-432,4104,2019,2800,-5611,-1014,2852
9638,-519,-2515,2124,-3697,4178,4515,170,2026
9638,419,-1522,1189,-2135,2533,1930,21,641
9638,1602,-195,-2744,3565,-1879,4382,508,3641
9638,1623,-220,-2421,2747,-1207,3793,839,1253
9638,-3188,-1568,204,832,5212,5584,219,3398
9638,-3322,-1208,953,1085,3856,3923,32,2235
9638,-1615,-552,1754,1721,2239,1256,-73,273
9638,1239,-552,-1384,-359,-1914,3446,420,-698
9638,131,-94,586,-31,-950,2515,331,-758
9686,-965,3709,9471,9969,4070,-22235,-2606,1636
9686,-2475,-1108,5992,4240,2430,-6441,-1338,1272
9686,-1790,-4353,2735,-52,-357,6466,78,461
9686,2648,2053,-8472,786,362,4628,985,-950
9686,1354,1876,-6148,1582,-547,3546,871,-1411
9686,1928,-525,300,661,191,2665,419,-360
9686,694,-294,-188,651,1454,2501,355,-692
9686,1054,-3188,-113,1185,10385,8332,736,-1260
9686,237,-2009,-263,2375,14290,5910,617,-1440
9686,480,-706,-446,2376,11968,2687,612,-1790
9735,284,3556,-2421,3074,-5145,-9627,-475,-206
9735,1480,737,-3800,-207,-3329,182,62,-1086
9735,1357,-181,-4172,-549,-2732,2501,-196,-1159
9735,1984,4815,2383,4601,-4170,-16019,-2152,2140
9735,3138,2486,1097,2536,-2983,-8378,-1488,2916
9735,-1791,-1529,-3473,-1552,-1710,5458,-172,-508
9735,-1605,-1177,-4747,-879,-3112,4557,-244,-594
9735,-680,-528,-3778,518,-3061,2004,-527,-114
9735,-902,-1955,-1048,-758,1405,3655,865,-342
9735,-212,-1927,2092,482,3240,2794,757,-501
9784,1857,579,2737,256,-664,-2730,142,-679
9784,-1185,-2241,2234,-998,978,4685,585,80
9784,-1589,-767,3268,2218,464,-1301,527,-756
9784,-1645,-1999,3465,1420,1845,2259,261,897
9784,-334,-1490,1084,1624,-1302,766,-32,1130
9784,195,3323,2358,3386,-5872,-15732,-1817,2540
9784,423,2016,2203,2553,-5404,-10949,-1462,2324
9784,1791,4842,3492,5482,-5477,-19245,-2303,2612
9784,-2205,-2572,-6279,-678,-999,6084,169,953
9784,-934,-2511,-4662,-429,-345,4815,31,1416
9832,-2258,4142,326,-964,-5883,-10589,-1444,2182
9832,-1305,3049,198,-1673,-4910,-6759,-997,1377
9832,572,2691,791,909,-2257,-5685,-913,1009
9832,44,-3091,-64,-221,4480,7806,731,41
9832,635,-3417,-425,42,4510,6281,387,1163
9832,614,-1333,-4124,35,-3837,4898,-1122,273
9832,2046,-1472,-3152,-250,-5537,4619,-1181,912
9832,-1894,1218,701,2663,-1358,-4283,-557,148
9832,-505,-1757,-1337,-1729,884,8172,1445,-2088
9832,-917,-1229,-1325,-1486,836,6995,1841,-2238
9928,1229,-1101,-4789,-4936,-1295,4268,769,-1152
9928,1963,-1497,-4412,-4553,-2439,5417,954,-2289
9928,993,-371,-2148,-1846,-3571,-460,336,-1435
9928,-589,2148,3382,38,1317,2780,163,708
9928,395,1658,2460,516,510,1242,44,572
9928,993,-506,1550,2976,7229,1159,-160,-50
9928,-23,1551,1945,4790,3177,-5424,-752,-451
9928,-784,-3511,16797,877,4579,3247,-176,2542
9928,-690,-2534,13875,1398,2287,1797,-123,1912
9928,-48,-508,-2547,606,3614,2501,165,-452
9977,-97,4654,1046,5722,-209,-15990,-3777,3200
9977,1940,4215,517,3902,983,-13226,-3393,2296
9977,1591,-4268,-4508,3078,2540,10074,1110,-1712
9977,-338,-2949,-2317,-191,1269,7494,787,-371
9977,45,-753,3079,1068,4886,3218,416,-322
9977,1845,238,2984,845,4218,2151,41,148
9977,1903,1406,2456,981,2888,-186,-352,1058
9977,1143,350,-6252,251,906,1300,790,-1413
9977,766,2670,-4076,3709,-1202,-8438,-289,-326
9977,992,-2239,3768,-2100,4327,4307,717,71
10026,-192,-297,2456,153,3670,-1036,-667,705
10026,204,-1407,550,-584,4177,4045,107,-1386
10026,-1065,-843,92,907,9598,1647,-207,-73
10026,119,-441,-344,1107,8088,345,-370,653
10026,-306,1762,-918,2181,-5570,-8921,-1446,858
10026,373,-2414,-3205,-2792,-3025,7142,334,63
10026,170,-2655,-2604,-2898,-2730,8203,774,-23
10026,-1277,-894,1031,1272,-58,1984,641,-1494
10026,-292,-637,1955,2262,200,926,514,-1282
10026,-252,-601,-641,1111,-666,-1043,-49,-562
10120,-881,995,-2682,186,921,-1411,-945,-662
10120,17,-1571,7883,-58,4045,1235,976,674
10120,1422,-243,5321,2590,1370,-2453,606,545
10120,1021,3348,4356,6592,-1703,-14573,-803,1089
10120,-1887,176,-2286,-2675,-1677,3790,124,1202
10120,-1943,-1363,-2460,-911,-2681,2879,239,460
10120,1189,768,-3784,169,229,1879,689,-733
10120,-668,505,-2475,1087,-1422,1379,603,-680
10120,-511,2652,-1181,3114,-4866,-8712,-992,1433
10120,-928,2271,-1128,4105,-4011,-7903,-1200,1737
10169,1994,-1154,206,-1834,4187,2243,114,-66
10169,1487,-2018,-857,-1143,3827,3346,279,-304
10169,-1247,-8,-5485,-859,404,1695,-47,314
10169,227,13,-3534,-303,-2816,523,-202,221
10169,175,894,1905,-667,-4575,-4356,-2,335
10169,679,3368,1780,3453,-2469,-12806,-653,19
10169,3708,1118,-4159,633,1490,5324,1818,-5927
10169,2141,896,-4860,845,-1845,4012,1271,-3771
10169,-1092,219,-2780,900,-721,1239,358,-297
10169,-197,-931,-3899,-110,521,3252,507,-2044
10218,543,1723,-1222,4866,3990,-11218,-1117,-1488
10218,1522,2827,-345,5863,2851,-14036,-1301,-1135
10218,1090,-4908,7978,-2122,3182,13183,1598,-770
10218,341,-3527,7350,-1450,-1086,9186,1340,18
10218,1232,-812,-4442,1119,-1515,2839,185,-875
10218,505,-1397,-3078,1555,1234,1812,68,-387
10218,228,1273,2372,2026,-603,-6907,-1853,1070
10218,-83,2645,3163,3561,-2407,-12178,-2587,1365
10218,203,2450,760,3039,-3733,-10229,-2397,1241
10218,687,-1517,-30,-2440,5340,4170,877,206
10267,-457,616,-8,2657,657,-6824,-831,2146
10267,-432,-2302,-1298,122,2715,3179,116,1871
10267,1927,-2264,-213,-743,102,3477,615,-3291
10267,2506,-1948,819,114,2331,2958,693,-3769
10267,-1641,-2634,-890,-2683,1599,7640,908,1688
10267,-1831,-2775,-163,-1622,1550,5700,664,1981
10267,-964,-1442,96,643,-3851,2305,450,-1533
10267,-193,-1534,727,1175,-385,1717,160,-489
10267,-1767,-974,670,412,1276,-258,-215,795
10267,-168,-301,5261,6252,3469,-12131,-1337,2588
10371,-1757,-284,2347,1416,7812,1600,-174,1534
10371,-510,3587,3423,4337,-3016,-10018,-1100,442
10371,-980,3163,2769,3590,-524,-8783,-660,780
10371,885,13,-7250,-1360,3275,5356,414,-1181
10371,967,144,-8894,-2223,2843,5385,637,-877
10371,429,279,-6936,-1321,2616,3778,432,-11
10371,1077,116,3322,-252,6820,3905,546,-194
10371,-352,309,3024,-153,7734,2997,331,-34
10371,1701,1766,-3758,2493,3291,-6984,-114,-2432
10371,2060,1902,-4743,2935,2543,-4690,-112,-1685
10420,-1381,246,1018,2882,-1866,-3927,-354,1299
10420,237,-1576,-571,-379,-3125,3414,446,1353
10420,489,356,-61,1656,-4813,-2743,46,1705
10420,1683,3495,5829,7989,4324,-10675,264,-316
10420,7,2728,5545,6959,6198,-7577,531,-1268
10420,-1406,-2305,-2629,-1374,-361,7243,730,1510
10420,-421,-2004,-1086,-1031,859,6069,531,611
10420,204,-1366,45,-443,697,3941,281,123
10420,840,859,-10630,-4314,-3774,5117,1896,-2824
10420,2818,1569,-12860,-3785,-8518,4199,1929,-2212
10469,937,1202,-532,3156,1542,-3331,-464,402
10469,-622,-1357,-1386,393,4458,6200,514,9
10469,460,-673,-562,1855,4674,3978,291,98
10469,-1082,-909,-1541,-2255,510,4060,721,-1446
10469,-821,-735,-2029,-1227,-958,2823,527,-2079
10469,3547,5671,-898,5280,2696,-11473,-112,-3018
10469,3363,4072,-883,1521,2844,-7220,54,-1934
10469,2179,3157,202,846,3548,-7599,-394,-568
10469,532,-682,-915,-1661,-3674,6034,-55,2039
10469,399,-582,-931,-1716,-4789,5163,-48,1619
10518,-1754,1075,196,2886,-5305,-11152,-1519,1051
10518,-772,1689,-387,1903,-6755,-11432,-1320,221
10518,-1569,1114,-246,1146,-5620,-8599,-888,-232
10518,1422,-5317,4878,-4702,7460,15418,1261,-917
10518,822,-5052,4274,-3322,6861,12849,1003,1321
10518,475,-2323,2183,-1398,-720,4056,146,-1318
10518,-36,-2351,2881,-697,228,2905,126,-1076
10518,1089,1013,6205,4541,-1426,-10794,1416,4581
10518,-113,203,4400,2461,-810,-7613,1230,2695
10518,-921,-1225,2180,-111,7076,5185,816,-1543
10567,1887,1251,173,3602,4052,-4732,-961,-3102
10567,2862,-1247,-2335,536,3004,4117,102,-3545
10567,2038,-326,-4099,1996,480,32,-107,-3154
10567,-1535,-515,303,-1014,687,3580,-87,-506
10567,-657,-779,977,-887,1591,2835,-57,-1346
10567,-546,-3186,3374,-2848,-1314,7990,878,-820
10567,442,-2457,2148,-2032,-3072,5889,557,-709
10567,179,-1329,-45,1893,324,1818,19,-820
10567,-1137,-1769,550,-314,-178,1727,-135,-382
10567,-1194,-1505,2174,-3409,-864,296,-65,-265
10615,824,2935,-868,755,-5204,-8015,-804,-562
10615,71,3528,-2327,1709,-3905,-10013,-957,-857
10615,-381,-3023,8928,1152,7520,2977,122,-378
10615,801,-2638,8840,1798,9155,2437,0,-160
10615,-330,-1825,8833,2807,9405,194,-273,36
10615,523,2,-2318,0,1787,2029,-1298,-162
10615,745,-455,-1693,282,564,1585,-1323,268
10615,1222,-1554,-2540,-4193,1047,10655,584,4284
10615,1031,-1039,-1151,-2702,1423,9229,893,2162
10615,-1256,-3023,1413,1673,-772,2116,2299,591
10664,-762,6,7692,1410,3615,-670,311,-3063
10664,-288,-80,6308,1875,3775,1224,608,-3172
10664,-141,3383,6816,6637,1863,-10571,-530,-2329
10664,-997,2985,1738,4681,-1093,-13534,-1196,-351
10664,-2147,4493,3499,6979,-852,-20771,-2225,756
10664,760,-1544,-3303,-6882,-4891,7113,1130,-1713
10664,1412,-1102,-3550,-6546,-4629,6569,959,-1046
10664,1362,-1519,-1562,874,-1244,4138,1165,-1064
10664,1196,-1169,-1472,1936,1170,3492,1145,-1028
10664,639,-561,-993,2867,1402,708,504,-649
10713,-950,675,4023,1664,1997,-7423,-870,520
10713,-703,-190,2325,-508,4033,-2399,-319,220
10713,1134,-1908,-90,-2226,5936,4827,418,-209
10713,3170,-1909,3894,-446,-464,2485,695,-1649
10713,1883,-1452,3084,-225,-2604,2499,926,-2386
10713,309,4094,-1267,4449,-9483,-15034,-1649,1656
10713,-34,5489,776,5444,-7710,-19565,-2493,3293
10713,667,-2105,-2849,-1848,-965,6476,2452,-1507
10713,-625,-1931,-1901,-3175,-756,6340,1998,-1295
10713,-729,-1331,-1473,-2320,-684,3396,971,-721
10762,165,2509,867,6281,1005,-14036,-1971,-331
10762,-1614,1499,1077,4604,-729,-10739,-1810,296
10762,-317,739,902,3274,-1904,-7785,-1500,351
10762,1453,-1838,-1619,-1801,4118,9201,905,-1942
10762,920,-1688,-336,-1224,5349,7782,624,-1539
10762,61,-1853,-1683,-1475,701,4880,40,-586
10762,-708,-1986,-1591,-1142,1338,4235,262,-483
10762,1266,1886,-1166,3263,-1338,-6508,-1279,218
10762,1036,-1584,-3389,-1233,-1523,5314,-52,-375
10762,698,-2652,-3169,-2080,-1827,8171,510,-518
10811,1609,-1062,-1002,-2722,-1468,1523,-373,824
10811,201,-2108,-1810,-3333,-3240,5327,97,520
10811,1485,761,-523,805,-5774,-4669,-629,526
10811,1096,1742,711,778,-2589,-8177,-1118,-1745
10811,126,1385,1107,1150,-2036,-7462,-1191,-876
10811,-1788,-2197,-3276,-1960,-395,12049,-2420,2072
10811,-2459,-1872,-2638,-1667,-118,12023,-865,1861
10811,-133,-1127,-1940,38,936,3089,190,154
10811,-1489,-868,-1338,147,1093,2546,108,575
10811,-544,-157,-225,787,1320,318,-100,941
10860,-230,918,3122,1780,-2437,-5200,-497,-110
10860,-1919,-1885,1567,-1547,-2195,4398,400,-346
10860,-1906,-1104,953,-1999,-4873,1763,378,-194
10860,-275,-890,7350,1827,4269,2815,333,-1504
10860,230,-710,5993,-324,4670,2679,315,-1502
10860,-272,3383,-1379,2451,-3141,-10625,-1403,632
10860,655,2658,-874,2597,-1804,-8996,-1113,724
10860,-494,2368,-248,3454,-756,-9712,-1313,798
10860,1208,-1931,-1934,-3855,-85,5745,650,-1257
10860,2521,-1591,-1684,-4006,-52,4849,541,-1109
10909,-550,2757,951,6824,-1759,-13058,-1263,-993
10909,-934,720,623,5451,132,-8141,-529,-960
10909,-767,150,994,4876,1916,-8002,-377,-545
10909,801,-5189,-3761,-4144,2078,14074,1522,-895
10909,1073,-4431,-4133,-3062,862,10931,1361,-1057
10909,249,-852,-670,-1962,988,5334,226,-1145
10909,463,-1002,-432,-1387,759,5159,720,-933
10909,1519,-565,-267,-920,-590,3579,1201,-1234
10909,1092,1881,808,2857,678,-7774,-500,-711
10909,770,1843,790,3064,-795,-7589,-518,-1089
10957,-1253,-578,-162,472,83,1608,593,-589
10957,-1174,1326,1534,3752,-1310,-8123,-437,-169
10957,165,-1175,524,1133,-328,-860,87,-456
10957,1082,767,-2644,-2014,-911,4317,539,-938
10957,2483,837,-2546,-2674,-1598,3819,549,-1464
10957,895,-2674,-1530,-3566,850,11262,622,1276
10957,-488,-3095,-987,-2996,622,9019,1115,637
10957,-418,-2529,-287,-1908,855,5485,1523,292
10957,732,-848,-1539,-1867,-2605,4022,842,-980
10957,-595,-449,-1306,-956,-1836,3638,830,-1113
11005,-388,2296,1523,4225,-371,-9586,-1081,148
11005,-9,2185,922,4280,-1107,-8241,-930,-180
11005,900,2562,1407,3015,-1260,-9211,-878,19
11005,12,-2835,5706,-439,5508,4576,2540,-2455
11005,-1417,-2899,6091,71,2803,3674,2354,-1775
11005,1014,1744,-4158,2987,-1310,2002,366,-1617
11005,1730,1724,-2323,2661,-816,1259,370,-2023
11005,-1328,-3020,-668,-3135,339,6885,550,-450
11005,-826,-3985,-1557,-3561,1242,11064,1048,-663
11005,659,-2438,-1157,-1324,844,6140,486,-552
11054,1630,1277,1191,-2736,-2358,-3625,-423,-2017
11054,2690,-1609,246,-3726,-1092,3617,150,-2514
11054,1663,-69,845,-99,-1063,-2704,-386,-2171
11054,-325,2346,641,2796,-2736,-8822,-1642,2307
11054,118,5327,2780,6849,-3009,-20159,-2880,2126
11054,-1240,-3781,-106,2987,2387,3236,863,-1360
11054,-2739,-3470,739,633,3910,3885,2397,-2476
11054,1162,-1555,121,4116,-299,1547,-737,-2198
11054,646,-1357,455,1988,328,2451,-529,-904
11054,-919,-639,332,762,543,1305,-654,115
11102,1144,3779,451,3648,-2892,-6787,-162,-888
11102,1585,4107,309,3759,-2494,-7372,-719,622
11102,739,1287,-555,1670,-1107,551,-210,2026
11102,960,-951,-1254,-1515,301,4515,962,-1732
11102,537,-937,-1524,-967,-1547,2989,629,-1420
11102,-436,1628,1243,3089,582,-7240,-653,-1599
11102,542,1284,1372,2594,1610,-6311,-666,-1991
11102,-174,-2999,-1033,1187,-360,4146,326,-1863
11102,-1399,-1820,-901,1233,-568,3285,238,-1703
11102,-662,-280,-249,1704,-139,788,-28,-1672
11151,-1735,2880,2575,2164,-2599,-11493,-1769,2895
11151,-249,1955,1542,1130,-2299,-7188,-1286,2345
11151,-567,2135,1439,1409,-2456,-7572,-1002,450
11151,1149,-2767,989,-2308,3513,6170,1191,-2544
11151,727,-2280,1947,-859,7483,4531,702,-2088
11151,98,-1187,-4193,-1726,-3226,3243,199,-1144
11151,457,-946,-5229,-710,-1659,2440,64,-1086
11151,335,1630,-1211,1827,-2355,-5843,-371,-2123
11151,1474,3953,867,3974,-2251,-13447,-1196,-3049
11151,797,6420,2752,5404,-994,-20767,-1972,-2696
11200,-1209,1895,1470,1707,-4765,-7126,-799,-445
11200,-1252,-230,563,-2292,-3712,108,-319,-238
11200,607,257,930,-4192,-2620,-891,-276,-299
11200,586,693,2244,1214,-3948,-7998,-832,1472
11200,694,994,1892,974,-1549,-5630,-427,75
11200,111,-2125,-6,-1237,3279,7297,551,-4
11200,-1288,-2113,439,-1262,3230,6402,550,245
11200,-1552,-1456,735,-725,2499,3250,355,313
11200,-477,1118,-3134,-1368,1066,5778,-375,-822
11200,-512,1560,-3064,-1012,366,4911,-542,-562
11248,-823,2663,3698,-1340,-1938,-15704,-1455,367
11248,-663,485,1623,-2702,-3621,-7634,-744,186
11248,932,-3366,-1147,-5103,-724,7694,950,-505
11248,-284,-4310,668,608,1008,7202,1163,-1517
11248,-1390,-4004,869,693,959,6032,958,-1411
11248,403,-1242,1947,1528,2229,3947,873,-2003
11248,-793,1037,2751,3752,-1128,-5432,-134,-1362
11248,-390,-2810,-347,-284,6523,7186,973,-2960
11248,1058,-2161,-169,1334,7521,5722,708,-2625
11248,1459,-1181,271,2181,5647,2695,285,-2286
11297,918,5903,2905,7045,1664,-12722,-1038,-879
11297,-184,3715,1753,4671,1758,-9062,-716,-1230
11297,-56,2172,567,2683,631,-6365,-432,-1519
11297,2518,3268,960,744,-259,-2249,-388,-2105
11297,2618,4677,1751,3489,-1736,-9202,-1091,-1227
11297,889,152,-418,-642,-910,7006,600,-4728
11297,552,249,422,-4028,2066,7522,869,-4481
11297,-1929,-1431,1171,-5075,-2914,5652,1086,-5106
11297,-1895,963,2650,-1571,-3980,-5186,-386,-2385
11297,-2951,1941,3152,922,-3808,-8940,-1062,-557
11346,1556,570,-1068,-267,2355,4107,449,-2443
11346,944,-316,-1979,-795,941,6393,404,-1972
11346,-241,2299,-568,2486,-1098,-4661,-705,-1104
11346,971,-61,-2677,-5376,2564,7326,764,-2564
11346,-876,-268,-3428,-2669,3295,6207,564,-1991
11346,-925,-1350,81,-2342,3662,12214,1037,-1416
11346,878,-978,-409,-1619,3080,11505,1078,-1517
11346,-569,760,617,2458,397,3843,81,-1672
11346,-374,796,613,3105,8,3458,215,-1725
11346,10,2092,1136,1289,528,-562,-358,-1368
11394,-1006,1558,5074,8370,680,-9197,-1610,-735
11394,485,2441,4821,4344,1463,-5593,-1080,-905
11394,507,2603,-163,-2020,443,5649,709,-2114
11394,398,2123,216,-750,1807,4158,420,-2136
11394,154,1611,1432,-164,3137,1770,175,-1825
11394,1596,2723,1814,-1241,-7368,2422,428,-4223
11394,3199,2935,1943,-2486,-6064,2799,129,-4153
11394,-50,622,2608,-3577,2715,9230,442,-1142
11394,-2181,918,2746,-1941,2966,8127,58,-769
11394,-1020,3139,4419,-1505,1317,1386,103,-2008
11443,960,5373,4023,-350,3884,-2653,-565,-616
11443,-624,5060,3081,-348,29,-997,-531,-891
11443,-116,6147,5321,6242,617,-7035,-1675,-785
11443,1031,5850,5119,4771,-26,-6316,-1567,-96
11443,784,5896,5115,2942,-664,-6820,-1363,330
11443,2587,5801,3587,1893,3424,6066,314,-3369
11443,2364,5909,3748,3005,3448,3774,178,-2892
11443,2174,4964,3499,-4965,2404,4986,78,-2265
11443,1845,4649,2735,-5006,2286,4678,103,-2287
11443,1258,3757,5884,-2308,4778,7709,-1996,-571
11492,339,7843,6735,2051,2260,-5259,424,-4084
11492,291,4339,5642,214,3660,5155,1591,-3038
11492,-302,3310,7162,-2968,2221,5642,121,-2538
11492,80,3061,6776,-2130,2078,4892,174,-2526
11492,522,3616,6533,-1516,2273,2086,-86,-2477
11492,1530,6500,7735,822,3019,-4469,-1008,-2760
11492,1729,6332,7728,1385,3378,-4961,-1002,-2713
11492,58,3554,8458,2377,3199,4735,-392,62
11492,356,3662,8396,5283,3708,3317,-262,-289
11492,3535,4585,8985,217,8088,5576,819,-4042
11541,-1773,5627,9122,984,-5245,-11685,-1894,-200
11541,-2018,3607,8197,707,-4218,-8011,-1739,629
11541,1885,4020,6626,-1673,9118,10583,-152,-3555
11541,1479,3919,6588,-1657,6380,9564,-251,-3600
11541,1229,3928,6610,-2213,1584,7213,-432,-3626
11541,-1299,2777,10648,-2460,2946,3637,-111,-931
11541,-1196,2816,10350,-687,2112,3370,472,-886
11541,815,4115,14069,-474,-3882,-4395,1337,-4461
11541,-414,3605,13884,-134,-3754,-5456,1114,-4249
11541,1474,2424,10027,2041,-1607,4312,1115,-4663
11590,533,3613,14755,-413,-598,-2981,149,-5316
11590,1603,682,12254,-6080,-1452,7043,1154,-5286
11590,1547,702,12019,-4124,-122,4824,893,-4347
11590,1266,3901,17970,6343,2522,-8978,-307,-3084
11590,524,3693,18097,7451,3161,-10879,-797,-2653
11590,-897,-891,14342,-3579,882,9823,999,-3850
11590,-200,68,13976,-2558,157,7162,846,-3404
11590,-446,-1428,16846,329,8559,4415,229,435
11590,-40,-216,15599,-10,6862,4418,368,729
11590,-846,1216,14741,-144,4839,2775,540,-55
11639,1089,1635,15537,-3567,1852,3166,1058,-7139
11639,2904,1136,13493,-2846,2698,5748,1416,-5510
11639,1977,3692,14271,2328,2111,-5929,-309,-3030
11639,65,1318,17345,-3445,1883,4708,-1580,-3315
11639,-1295,1652,16496,-3005,1816,12929,-1933,-2947
11639,-1259,2984,19927,6495,453,-11075,3182,-6216
11639,-877,3252,19020,5701,438,-8379,4228,-7633
11639,-280,-2971,18855,-3719,4243,7806,1916,-3638
11639,-440,-3223,17961,-2198,2719,7388,1825,-2880
11639,-514,-1919,17026,320,1517,4942,1523,-2571
11688,-655,4266,20459,4844,2097,-2374,-18,-3227
11688,937,5351,20013,6256,2585,-8248,-784,-3918
11688,800,3588,18721,4860,4739,-6256,-718,-4419
11688,1258,-1110,15895,-5227,-127,15327,1265,-726
11688,1031,-1527,15395,-4364,-296,11497,702,-632
11688,642,-2760,20608,2450,627,6788,3216,-6456
11688,537,-2549,19327,1361,200,6379,1986,-5154
11688,384,2690,25088,9910,1833,-12574,-2266,-4250
11688,-88,2127,23105,6229,1643,-8348,-1838,-3905
11688,558,2572,20925,2804,-1406,-6717,-1308,-4048
11736,302,3121,22636,2423,-482,-2241,-2436,-5376
11736,1219,2987,21503,2601,-1150,-3103,-2841,-5117
11736,-252,-243,19234,-387,-446,5419,-2259,-4653
11736,2546,309,22162,432,6157,5165,2036,-11126
11736,1403,258,20943,-86,4809,4671,1786,-8970
11736,-1067,-3432,23961,-2579,3794,11593,1641,-3329
11736,-844,-3211,23089,-2209,2629,9136,1378,-4143
11736,497,-1302,24460,-3001,720,8465,-4858,-167
11736,-1021,-1371,23366,-3639,-943,7397,-3317,2315
11736,138,-724,22418,-2248,-1642,4195,-1550,4338
11783,-813,2704,27937,6909,-1990,-12573,-5367,778
11783,-262,2211,25782,5991,-2199,-5216,-3354,-1273
11783,1538,-1504,26337,-647,5989,5478,2262,-6989
11783,542,-1783,24645,186,4152,6141,2006,-6432
11783,-401,-1303,22899,1554,106,3945,819,-5218
11783,1454,136,23223,-1389,-3974,7866,3825,6641
11783,1728,-1384,22349,-233,-2906,7452,6038,8320
11783,773,-1911,28699,-2505,1824,4125,2695,-7960
11783,633,-4340,25950,-3987,1767,10895,3245,-7500
11783,-1053,-1368,29034,-1576,-314,3806,-2177,1343
11831,840,3322,28541,1048,-5229,-7032,-4077,-2293
11831,417,892,26488,-906,-3586,-396,-3657,-290
11831,2597,1815,32290,4890,1384,-9343,-18,-2413
11831,2450,998,30522,4199,2981,-6628,439,-2964
11831,-795,-2583,29206,-5623,-3838,10023,3360,-8152
11831,-2319,-2011,27944,-3540,-2371,7842,2559,-8169
11831,-1106,-828,26753,-976,-897,4664,2202,-8323
11831,-893,-2782,30212,-158,3094,6620,4507,-2937
11831,333,-3282,28938,-24,1600,4933,4451,-4925
11831,408,3088,32128,1718,335,-3615,-1178,-106
11926,-891,-3930,30125,756,-7758,2565,221,-3737
11926,-1263,-4664,28691,848,-3257,4034,489,-3115
11926,-210,-5552,31877,-3587,4476,11248,7255,-7798
11926,-839,-5597,30172,-2510,4472,11911,6313,-5904
11926,-1428,-1920,35716,0,3474,4979,592,-4417
11926,-930,-2917,35787,-360,3034,4976,798,-4262
11926,721,-1729,38384,764,4430,3894,2323,-4457
11926,-283,-836,36178,1136,3493,2542,2400,-3656
11926,525,200,34179,1938,2298,-227,2229,-3549
11926,530,178,35352,-234,3193,6399,-988,-297
11975,3153,3635,38988,1306,-471,-7658,1732,-2137
11975,1924,2060,35993,-2056,592,-121,226,-123
11975,1746,-75,35617,99,-1091,5864,3934,-7974
11975,-237,203,33968,853,285,5427,3968,-7028
11975,-2126,4239,37674,5192,848,-8895,-8101,4420
11975,-266,7725,35241,7455,-506,-17183,-9233,5751
11975,548,-6525,37701,-1481,1564,7866,2747,-2182
11975,2733,-4523,35435,-611,1248,6911,1943,-2272
11975,1946,-2777,33473,381,841,4919,841,-1992
11975,-2408,-2638,34994,-1590,4221,4299,-3365,-828
12023,1148,3505,34531,3831,-307,-10028,-4519,-1190
12023,1270,2926,31924,3696,902,-8019,-2228,-1576
12023,1275,-2405,34321,-938,1807,11739,1473,2963
12023,630,454,32296,-819,1706,10414,2881,1843
12023,-593,-5731,37763,104,6877,5639,4271,-3280
12023,-1486,-4101,35708,-228,1300,4319,4008,-3324
12023,-8,-1502,32259,-1059,2845,2749,-299,6281
12023,-571,-3152,29936,-3075,1983,9030,2603,4597
12023,-1531,-1910,29121,-2241,-752,6084,3646,2304
12023,-45,-1202,31391,-214,1549,4694,2925,-4000
12072,389,1602,33365,2856,-73,-4242,-966,-1938
12072,696,-1016,30167,-659,-184,5591,-1434,-1890
12072,-664,98,33789,3701,959,-7659,-1373,-4140
12072,-460,854,31581,7447,2827,-8499,453,-2973
12072,375,-4762,31136,1190,-683,6953,1242,848
12072,-940,-4607,29697,874,-855,5883,3274,-2759
12072,1379,2653,30587,-3231,2650,4457,-2197,-3690
12072,662,320,30615,-1322,3137,2535,-2198,-2319
12072,1422,-2470,30552,1562,3523,261,-536,-3559
12072,-691,-5279,32829,2802,4358,5670,2086,619
12121,1981,-2599,32541,1248,2548,3628,2392,1710
12121,1394,-3869,29873,538,2453,5189,1484,4176
12121,1741,-522,26891,-74,2639,6822,3016,-5189
12121,-352,-2224,26282,527,3414,5926,3096,-4563
12121,-5077,-2052,36225,4070,6338,2959,-893,7312
12121,-5287,-983,34523,6440,7821,-1718,-4096,9740
12121,-1343,-1546,31506,5760,2993,3749,2176,-2719
12121,78,-1021,29933,3387,3438,3718,1246,-2699
12121,-55,119,28567,1282,4791,1494,529,-3842
12121,1418,-1160,30177,3388,-879,4549,4779,-3516
12170,953,3745,29621,1605,-5446,-7966,1697,-1061
12170,2412,3612,29272,4869,-5050,-13233,163,-56
12170,-1486,-3474,28718,-2880,2232,8480,3121,-2643
12170,370,-1893,26967,-2080,1032,7168,1313,-1598
12170,2990,-2477,32167,6786,12021,3352,-603,-4791
12170,1288,-2122,29819,4428,4834,3568,-223,-4376
12170,-983,4949,35957,5701,-518,-11564,-8788,2443
12170,-737,2290,33506,4028,427,-10637,-10632,4093
12170,19,522,30691,3554,1689,-9439,-10074,4629
12170,92,-1107,26379,6647,1600,-22,4412,-6538
12219,1980,-438,29107,6281,4043,-10205,4278,-6590
12219,2609,-2863,26515,2987,5524,127,4961,-6489
12219,2072,-3196,29016,495,-2035,-75,-712,2339
12219,1767,-2182,27757,-636,-4643,-1011,-431,1041
12219,1597,-3961,29342,-1946,-5295,5540,3203,-7154
12219,-630,-4615,28565,-1347,-3441,4455,3658,-6287
12219,-399,-4608,27846,-664,-1911,2990,4243,-5213
12219,2851,23,27293,188,161,3454,3856,-4242
12219,2146,1112,25653,624,4197,3750,4064,-5302
12219,2283,6376,25430,2564,3098,-5327,14625,-13988
12268,538,522,31135,5471,-2720,-7698,6529,-6816
12268,571,-130,28240,5742,-178,-3089,5170,-5256
12268,862,1504,22649,1481,-3441,3871,-1288,1594
12268,850,2076,22679,1496,-2020,3404,-155,126
12268,-1608,-7661,28302,530,3677,6215,765,-3337
12268,-1601,-8277,28152,2504,5171,2850,-2802,-836
12268,443,-5311,28839,6403,3867,-9122,-6397,-128
12268,969,-3124,27827,-4824,-7568,4428,1028,-3638
12268,430,-2137,26932,-2177,-3602,13358,1633,-2647
12268,1578,-143,24964,3290,10225,6384,7080,-11039
12317,291,4106,24683,8092,4102,-13576,-1107,-4734
12317,1591,4890,22782,6706,2313,-9977,-119,-4669
12317,895,3406,27137,5499,-2859,-12069,47,-5193
12317,323,1099,23879,-35,318,-588,1588,-7073
12317,-986,-1916,27479,452,6512,8523,3438,-9309
12317,-979,-2142,25721,-1792,7460,7836,4176,-11454
12317,940,-2167,23751,-3492,8595,6559,3988,-10270
12317,-338,-2637,20523,-376,5768,6516,-1894,-228
12317,1679,-2279,24813,3607,12187,6374,-2540,-506
12317,1776,-2954,23249,2470,11711,5900,-3396,-227
12366,1960,920,19252,-39,-3501,3398,1082,1979
12366,211,-1656,19085,770,-192,5410,2144,1230
12366,2403,-2418,21275,3077,6473,3196,5051,-2742
12366,1082,-3550,21827,3367,8387,2262,3044,-3163
12366,719,1717,18503,-2989,10222,16101,6659,-4256
12366,585,1618,17518,-425,9128,11813,5709,-3360
12366,529,-3510,20616,1361,-552,4292,2950,596
12366,2292,-2976,19778,2429,-562,2772,2741,-1080
12366,2255,-1594,18841,3217,-1978,285,3050,-2099
12366,1542,4769,16983,292,3880,2458,3271,373
12414,1615,169,20145,2418,-8983,-5819,3957,-1467
12414,491,-3636,15923,695,-5575,6491,7404,-272
12414,-254,-3115,15173,584,-4466,6140,6228,645
12414,1262,-1688,15251,1979,-3404,3568,5025,2065
12414,1596,1761,17410,-2272,283,5074,3503,10
12414,2739,2586,16544,-1682,376,4435,3872,26
12414,1131,1245,14919,-2198,3928,11136,6833,3949
12414,1970,507,14591,-490,5147,7940,8223,680
12414,5218,-2506,17917,460,2225,3899,2635,2701
12414,4867,-2274,17386,341,2021,3520,1210,2116
12463,959,263,17567,9913,4425,-7471,-633,9102
12463,-419,-1133,13969,5006,3875,516,180,9451
12463,220,1554,15508,4475,9460,-6536,-3404,15122
12463,1780,2531,13767,2348,3635,-8336,-1388,12280
12463,1859,-1806,13849,-852,-632,6821,4327,5978
12463,2356,-1278,13536,22,-296,5559,4045,5334
12463,3472,5072,14911,4704,909,2650,3044,9298
12463,1573,2486,13490,3399,3535,3512,2814,8717
12463,1523,395,11885,1502,6485,2634,1068,9147
12463,565,1949,11180,-601,6285,4916,4541,6390
12512,1592,335,12936,5310,-721,-5892,2357,6242
12512,2780,-2376,11042,1535,3334,7552,4045,4147
12512,2089,-4419,11768,-2252,-1269,4732,4849,2584
12512,2346,-6325,11834,-719,-2775,4197,4425,3269
12512,88,2934,11624,5702,-9547,-6065,-1274,10381
12512,1035,1527,11164,5646,-8199,-6561,-3057,8787
12512,2893,709,6532,-1684,3632,7235,7352,5715
12512,2325,-2078,6568,-495,3759,6563,6575,4827
12512,715,-3506,7453,1193,2649,3542,4925,4561
12512,1584,-2700,8282,608,8576,3965,4133,2607
12561,-217,2638,11641,-3296,-1264,-7055,-636,9820
12561,1758,2715,9399,671,2051,-6211,-3259,9117
12561,1811,-4047,9012,4557,6002,7717,5043,8176
12561,2330,-3157,8906,4581,5074,6462,5196,6650
12561,2351,1926,5564,5552,11198,2608,-2096,12609
12561,2643,570,5155,6195,10308,1703,-1320,12637
12561,-247,1188,9046,2956,-2840,-4603,-5371,19172
12561,812,1292,7600,-2631,-7707,8037,295,14027
12561,3012,1926,7089,-4780,-9976,12263,4994,7520
12561,2474,-1146,10081,-1606,-1880,2685,1805,7365
12610,885,-2496,3029,1844,-3478,-6059,1161,7601
12610,605,-5122,927,-744,696,3770,1832,6611
12610,2564,-3664,8029,8658,4022,-789,4016,1726
12610,3436,329,9845,12546,1342,-10726,2637,2425
12610,74,394,2217,-2885,461,6445,-190,13040
12610,-893,-235,2821,-4303,1102,4982,-781,14110
12610,-482,-1187,3634,-2884,1677,962,-1553,13615
12610,2600,-3107,2317,2244,5357,3212,-2911,12587
