timestamp,ch1,ch2,ch3,ch4,ch5,ch6,ch7,ch8
66,0,0,0,0,0,0,0,0
66,-2043198,1064417,229745,-3296900,-616460,1740740,278246,221310
66,-1921000,1001365,214918,-3102332,-580927,1638650,262037,208022
66,-1807484,942118,202766,-2918950,-546133,1541789,246573,195764
66,-1702436,885818,190544,-2747420,-510737,1451854,231903,184465
66,-1600807,833451,179628,-2584576,-479941,1365170,218224,173632
66,-1507355,784594,169581,-2430899,-451837,1282359,205145,163416
66,-1418350,738157,159356,-2287531,-428173,1206770,193096,153649
66,-1334129,694779,149984,-2151856,-402721,1134405,181523,144640
66,-1254696,654697,140976,-2025060,-379008,1067123,170924,136017
114,-1179077,618928,134890,-1902115,-356519,992584,159461,128261
114,-1109139,581899,126659,-1790131,-335102,935448,150226,120480
114,-1045314,543342,117078,-1687112,-317140,890092,142431,113428
114,-985043,511122,110455,-1587110,-297907,836996,133824,106871
114,-924975,481760,102393,-1494066,-281964,787234,126166,100223
114,-870471,453588,96246,-1405540,-265380,740139,118655,94308
114,-819241,427354,94314,-1320485,-245522,689939,110118,89858
114,-771006,398899,87717,-1245803,-231401,660044,105013,84079
114,-726810,375892,82987,-1171377,-218961,618751,98762,79060
114,-681592,355043,76837,-1101177,-204015,580221,93266,73615
162,-641076,336854,73511,-1032600,-192223,535909,86415,69771
162,-603033,317003,69229,-971879,-181042,504151,81158,65684
162,-569319,298500,64870,-914118,-170887,472644,76139,62315
162,-534116,280708,61136,-859883,-160354,444896,71615,58686
162,-502831,261252,56131,-813289,-150990,431444,69234,53777
162,-473046,245898,53188,-764808,-141767,404749,64920,50598
162,-445703,231031,49665,-719951,-134005,381057,60840,47379
162,-419538,217443,46855,-677280,-126087,358302,57244,44699
162,-394556,205175,44378,-636696,-118745,335349,53773,42224
162,-372002,197100,45481,-593489,-111241,296923,47934,41160
211,-349792,179416,40007,-565472,-106673,300792,47922,37523
211,-327730,168991,37395,-531504,-98772,282838,45284,35308
211,-309668,160311,33629,-499590,-92238,264774,42481,33091
211,-290104,150888,31330,-469943,-87874,248754,39945,31198
211,-273914,145031,33495,-439035,-81353,223374,36084,30393
211,-257717,136835,31279,-412856,-76774,209433,33924,28696
211,-240860,124687,26752,-392653,-71846,209778,33525,26148
211,-226925,117288,25222,-369153,-67649,196833,31439,24693
211,-215037,110875,23862,-346485,-63938,182848,29172,23550
211,-202387,104597,22038,-326887,-59790,173828,28052,21539
260,-188476,102195,22324,-302351,-57708,148839,24499,21356
260,-177256,96584,21309,-284311,-54444,138241,22757,20051
260,-167648,82609,17548,-275316,-50312,155123,24084,18340
260,-158553,78555,17035,-257733,-47047,143315,22433,17293
260,-149545,75989,13803,-241402,-47543,129160,20544,16190
260,-140662,71519,12723,-226951,-44890,121062,19393,15184
260,-131374,70812,16814,-209719,-38585,102523,16766,14908
260,-124579,66544,14940,-197781,-39063,97165,16001,13962
260,-116189,62718,14284,-185803,-36477,90931,14984,13138
260,-109734,56277,11419,-177807,-31749,96272,15279,11667
309,-102370,55229,13195,-164454,-29802,80883,13277,11343
309,-96013,49397,11101,-157990,-28737,85536,13652,10066
309,-90862,46900,10075,-148358,-27591,79993,12985,9372
309,-86067,44634,9358,-139492,-26241,74630,12102,8954
309,-80333,39555,8064,-132874,-25105,74518,11927,8337
309,-75435,37564,7690,-124599,-23704,69013,11089,7983
309,-71376,36127,7507,-116617,-22521,62554,10068,7599
309,-67159,34012,8459,-109592,-21285,58476,9510,6843
309,-64557,32303,8564,-102730,-19171,53970,8955,6220
309,-60335,33231,9272,-93915,-17127,41991,7320,6758
357,-55014,29712,7716,-89916,-14802,44101,7288,6167
357,-51827,25197,5703,-87452,-14423,50251,7889,5396
357,-49052,25119,5709,-80652,-16000,43065,6864,5136
357,-46393,23828,5536,-75725,-14414,40358,6540,4788
357,-45316,22128,5440,-71342,-13427,37839,6103,4188
357,-42348,21043,5241,-66903,-12413,35093,5665,4078
357,-38374,17958,2628,-65860,-14055,40220,6042,3873
357,-36136,17293,2212,-61296,-13123,36544,5543,3658
357,-35129,16882,1795,-56951,-12309,32334,5011,3474
357,-32932,16334,3014,-52935,-11570,27208,4287,3177
407,-29873,17950,6559,-46139,-8044,16671,3076,3784
407,-29091,18405,7014,-41638,-7807,9460,2031,3932
407,-26133,16411,4098,-41063,-6623,13592,2479,3042
407,-26029,17333,5412,-35885,-5938,4748,1446,3398
407,-24588,11116,3042,-39619,-5731,23348,3509,2492
407,-22947,10611,2697,-37118,-5494,21455,3343,2326
407,-20095,10657,2734,-34243,-5301,18097,2862,2225
407,-20755,9399,2343,-33245,-8099,18365,2725,2178
407,-19753,9359,2769,-30529,-6164,15326,2321,2188
407,-18441,7669,2079,-29895,-6619,17767,2617,1924
456,-15504,11616,498,-23904,-6297,4216,1185,2176
456,-14649,8424,-889,-25956,-6756,13327,2105,1600
456,-13694,7127,16,-25050,-4676,14123,2214,1473
456,-14482,6687,497,-23336,-4220,12855,2086,1444
456,-13580,6872,1131,-21056,-4297,9909,1805,1533
456,-13436,10545,4696,-14252,-5095,-7324,-391,1928
456,-12188,7039,2912,-16810,-5285,2403,559,1669
456,-10343,3916,804,-19260,-3404,13411,2081,693
456,-10805,3622,879,-17965,-3121,12454,1965,544
456,-10252,4307,994,-16946,-2946,10439,1828,999
503,-9766,6634,3718,-10938,-2474,-5299,-436,2006
503,-9171,5264,3272,-11292,-2252,-1823,-110,1762
503,-7891,1327,-663,-15215,-3092,13223,2254,438
503,-7054,1710,-1498,-14109,-3882,11572,1972,600
503,-7852,2612,-1249,-13210,-3421,8684,1400,743
503,-6132,2693,-821,-11992,-2593,7271,1229,733
503,-6955,2912,-122,-10602,-2128,4971,840,780
503,-6184,1099,-950,-12817,-5245,12071,1728,256
503,-4903,1262,-552,-11539,-3687,10794,1768,123
503,-4673,1440,2851,-8558,-1558,5312,840,283
552,-5297,5318,1565,-5068,414,-5999,-206,502
552,-3933,2253,320,-8304,393,4257,794,109
552,-5026,4762,2237,-4525,-1062,-5173,-296,332
552,-4682,4500,2230,-4139,-1065,-5351,-342,322
552,-2868,343,-189,-8271,-1040,9239,1394,-301
552,-3312,354,-12,-7531,-896,8335,1294,-221
552,-4466,931,334,-6236,-672,5562,959,-34
552,-3798,770,1992,-6049,735,5255,794,15
552,-3977,738,2721,-5297,1153,4097,500,402
552,-2737,2149,-1462,-4632,-4088,-176,1,42
601,-1870,1225,1033,-3881,-1073,938,188,68
601,-2019,-517,858,-5315,899,6516,963,-95
601,-2899,546,-19,-4671,2928,4030,848,-430
601,-3002,457,1603,-4164,3218,3118,859,-240
601,-882,4190,196,-784,-1251,-7150,-759,223
601,-2408,3800,484,-668,-1132,-6684,-830,438
601,-2394,3905,1025,149,-979,-8319,-1089,653
601,-1864,-862,-884,-4721,-1320,7362,1342,-468
601,-1826,-677,-635,-4075,-940,6111,1079,-345
601,-2397,-503,1886,-2890,1125,3414,516,-243
650,-18,4951,1165,2541,2346,-12813,-1216,516
650,-532,3957,1854,1781,2753,-10129,-1108,419
650,-1829,-2558,-1219,-5119,-816,11458,1709,-540
650,-1767,-2155,-975,-4448,-846,9550,1455,-340
650,-1787,-689,-1328,-3158,-2503,4637,892,-186
650,-1686,-958,-979,-2910,-1969,4276,843,-80
650,-1528,-893,-323,-2314,-681,2958,614,101
650,-803,2738,1466,864,-706,-7346,-858,330
650,-20,2409,1367,754,-974,-6921,-810,462
650,-1420,-1544,-1553,-3257,-1653,4904,855,-658
699,-1053,-177,1337,-1578,137,568,118,-76
699,-657,-1387,872,-2750,752,4864,735,-423
699,365,-643,-1859,-1789,-366,3039,661,-240
699,39,-422,-2484,-1673,-507,2631,639,-130
699,-1070,353,-2728,-875,-638,200,305,-78
699,611,-2409,-89,-3054,493,7157,1092,-617
699,644,-1850,25,-3128,518,5925,884,-482
699,435,-346,-9020,-1935,-3856,2696,564,-585
699,-763,21,-7957,-1600,-3611,1649,480,-609
699,-598,2075,4263,1686,203,-8287,-970,150
746,-827,2476,3551,1846,-937,-9498,-1187,303
746,687,2046,3413,1385,209,-7873,-1064,253
746,827,-809,78,-1961,1282,4771,852,-793
746,737,-622,99,-1692,1063,4129,814,-905
746,-292,-780,-941,-1211,-3421,2600,338,-339
746,-1663,-536,-808,-998,-3531,2102,285,-338
746,-1635,120,54,-205,-2268,-143,79,-232
746,655,-2564,-2699,-4596,-2195,10913,1542,-731
746,12,-1849,-2067,-3462,-2059,7833,1137,-438
746,218,-344,633,-864,3079,2379,528,-215
795,-2008,2095,9580,3107,2479,-10045,-874,463
795,-1364,73,8259,-198,1824,-1849,-64,-47
795,-605,2511,227,2481,580,-7943,-839,-145
795,300,5757,2470,6141,2580,-19301,-2198,686
795,-580,-1500,-1086,-2846,-192,6588,941,-661
795,-539,-1286,-1063,-2469,158,5941,791,-479
795,906,-790,-754,-1608,434,3931,518,-420
795,182,-894,-507,-1099,-263,2719,321,-172
795,-702,-715,-515,-994,-169,2733,326,-250
795,368,-1251,-529,-1946,-124,4844,839,-599
844,-1113,1317,1115,1333,-154,-5206,-440,-211
844,396,-1194,-242,-1641,-369,3708,590,-623
844,816,-303,-486,-1803,-2270,3078,836,-696
844,673,-64,-321,-1317,-1396,1823,628,-555
844,-1833,3102,2157,4085,-1031,-13188,-1381,1159
844,-1336,5378,3381,6723,-1194,-21356,-2474,1371
844,450,5083,3168,6050,-1614,-20116,-2544,1168
844,-1087,-1772,-915,-2369,-1609,7180,1271,-641
844,506,-1338,-1652,-2172,-3767,6209,1094,-485
844,-426,-1564,3124,-1831,4562,4696,823,-780
892,-518,56,4893,1410,4286,-3167,-200,146
892,-1537,2572,5652,4106,3903,-11705,-1322,629
892,931,-1965,-1943,-2940,-238,8567,1305,-901
892,970,-1669,-1398,-2463,-55,7344,1162,-942
892,343,-1107,-1554,-1907,-1571,4973,974,-690
892,-963,-934,-1336,-1448,-1326,3874,908,-564
892,185,-391,-861,-676,-1138,1615,593,-390
892,-842,1106,1035,1169,2027,-4922,-332,-199
892,-779,2041,1154,2300,-827,-8145,-685,2
892,-1209,-1235,-1945,-2872,-2034,5741,1367,-1103
941,-309,-484,-1073,-1644,-925,2148,562,-600
941,682,-1276,-1155,-2226,-769,4530,841,-689
941,-48,2461,-3627,2693,171,-6888,-169,-732
941,-338,3270,-2902,3103,-33,-10216,-576,-543
941,-732,-2523,-1345,-3051,-1200,7985,1333,-686
941,55,-2342,-1095,-2730,-910,6855,1180,-515
941,-777,-1734,-847,-1977,-574,5017,847,-336
941,1228,-396,-679,-1931,-1190,4064,1026,-468
941,147,-174,-669,-1832,-1036,3766,947,-270
941,-606,1216,1646,1904,448,-6209,-752,624
989,-171,1878,1310,2045,151,-6724,-237,260
989,-106,-191,102,-1030,-359,874,480,70
989,-462,-2091,-694,-1464,-722,3798,733,-130
989,758,-1499,-851,-1163,-1283,2823,571,-100
989,-428,-1134,6104,-603,3785,2710,634,-638
989,590,-410,7333,119,2938,443,364,-676
989,159,-1989,-1772,-2641,-1370,6992,1291,-789
989,-727,-1643,-1667,-2324,-525,6244,1142,-838
989,540,-1231,-1186,-1605,1360,4809,956,-701
989,-606,-682,469,-883,2648,2900,613,-792
1037,768,584,-1184,354,833,271,343,-667
1037,-853,4432,-657,4103,-339,-13370,-1360,-53
1037,368,2968,1102,3179,-1741,-11173,-1355,316
1037,243,4368,1956,4656,-1360,-15908,-1823,611
1037,-772,-1894,-769,-1997,2300,6155,1144,-986
1037,-609,-1539,-632,-1711,2836,5248,943,-674
1037,590,-922,-1712,-1535,-1780,3663,652,-1038
1037,727,-340,-1522,-1145,-1410,2653,594,-1010
1037,846,1377,-546,935,-1206,-3258,-81,-682
1037,328,-595,-1970,-2076,-3492,5088,918,-1122
1086,-126,303,422,675,239,-2770,-326,-231
1086,-354,-1832,-627,-1656,-53,4481,536,-589
1086,599,-1137,1635,-1224,2234,4279,653,-841
1086,214,-767,1560,-656,1982,2769,471,-668
1086,-851,3571,2348,5179,-1405,-15274,-2007,624
1086,698,3480,1710,4340,-2279,-14174,-1892,480
1086,-1033,-1302,-848,-2069,123,5469,584,-879
1086,-843,-1251,-783,-1784,199,4971,573,-859
1086,-721,-891,-603,-1333,266,3877,562,-923
1086,-675,-877,-886,-1024,-1059,3131,444,-453
1143,-455,3448,5333,4170,-1816,-12619,-1545,382
1143,463,-2185,-2215,-1958,-2004,5641,792,-310
1143,128,-2208,-1537,-1475,-1162,4495,592,-153
1143,10,-613,-1462,-1424,-382,3591,622,-126
1143,-1015,-586,-917,-1086,162,3175,584,-54
1143,-917,1548,2854,2142,-471,-5975,-808,448
1143,-799,3736,4402,5454,282,-14852,-1818,1003
1143,811,5049,5199,6883,499,-19898,-2501,1142
1143,485,-1462,-1070,-1832,-218,6048,893,-456
1143,-431,-1297,-795,-1357,-157,5062,719,-415
1192,-947,3547,2288,3680,-106,-11986,-1455,1268
1192,-458,2364,1712,2215,-440,-8070,-1142,1237
1192,1024,1965,1442,1954,-425,-6623,-878,1116
1192,-637,-2305,-1263,-2878,-82,9164,1162,-854
1192,-918,-1893,-1201,-2558,-494,7835,992,-705
1192,965,-2018,-908,-2021,-685,6081,882,-499
1192,-532,-1534,-995,-1996,-482,5731,860,-478
1192,-209,-944,-748,-1358,211,4063,597,-217
1192,-674,1032,126,1571,-1574,-5239,-869,359
1192,797,2293,855,2930,-1515,-9446,-1306,576
1288,-558,-1794,6699,-2063,1007,4658,466,256
1288,561,-1785,5679,-2375,1160,5456,694,-35
1288,-577,-289,3200,-208,3713,1038,556,-176
1288,746,-954,-2037,-1383,1212,3755,824,-246
1288,1079,-679,-1686,-1083,1290,2676,733,-101
1288,-797,-579,-1600,-1211,-275,2495,525,-56
1288,-869,-317,-1638,-884,33,1707,373,101
1288,1115,-1210,-899,-1203,60,4219,900,-382
1288,-90,-750,-605,-852,1816,2731,742,-260
1288,1016,-157,-258,-203,2470,403,381,-66
1337,-757,2973,3774,4506,916,-14063,-1395,804
1337,-937,2281,3641,3572,1555,-11793,-1357,748
1337,-534,1259,2705,2296,878,-8272,-922,655
1337,-605,-2033,-1136,-2303,-1030,5001,604,30
1337,-597,-3413,-2645,-3924,-1035,10852,1451,-180
1337,-143,-348,-7106,-1355,-106,3959,1016,-760
1337,1078,-209,-4246,-981,94,2917,928,-599
1337,1337,-704,-1722,-750,-627,2315,481,-806
1337,1086,-560,-1467,-551,-553,1578,410,-421
1337,-594,1562,-189,2103,-482,-5934,-389,-9
1386,1546,96,-570,277,-217,-1396,33,-794
1386,1416,-1585,-896,-1332,2191,3857,586,-996
1386,1218,589,374,1743,2961,-4053,-330,-662
1386,-714,-1153,-604,-1600,302,3568,815,-666
1386,-457,-1206,-278,-1293,431,3026,783,-730
1386,1053,3957,-16,3443,-2928,-12228,-1520,-16
1386,711,-625,-1597,-1967,-2480,3513,260,-750
1386,-886,-2350,-1885,-3367,-1699,8926,1091,-877
1386,-1003,-1148,5867,-1477,1542,3427,775,-736
1386,-398,-801,6902,-1059,1448,2319,595,-713
1481,687,1235,-7991,136,-779,-559,288,-627
1481,-523,994,-6894,-541,-1138,807,569,-731
1481,979,2633,1464,3409,1363,-10198,-863,275
1481,789,3084,1800,3533,1107,-11734,-1242,442
1481,383,2343,1541,2604,802,-9241,-977,441
1481,105,-621,-4124,-2076,-3739,4037,835,-152
1481,-855,-690,-3730,-1804,-2729,3423,655,-35
1481,-126,-792,416,-1508,3374,3125,932,-350
1481,-648,-240,624,-1290,2780,2283,810,-454
1481,499,1444,4127,2233,1486,-7032,-856,183
1530,936,1864,3111,2562,1272,-7080,-553,-128
1530,-722,-1475,-460,-1918,730,5017,737,-608
1530,-1096,-331,-3682,-621,590,2915,346,-182
1530,-883,-342,-7167,-635,-460,2628,481,-59
1530,-413,42,-6649,-216,283,1158,603,-96
1530,302,2710,4491,3572,2611,-10788,-1277,390
1530,-1065,2167,2889,2637,867,-8402,-1025,117
1530,726,-2207,21,-1850,859,5966,1052,-868
1530,-406,-1661,527,-1117,1685,4151,801,-716
1530,-775,-700,975,-1497,156,4018,748,-729
1579,-45,4515,3188,4367,79,-13146,-1303,17
1579,-165,3128,2790,3087,7,-9993,-1099,23
1579,-69,1530,2382,1968,-226,-6627,-692,-23
1579,953,-4414,553,-4716,-953,13142,1643,-834
1579,461,-3828,377,-3730,-1167,10539,1375,-679
1579,676,-1539,-887,-1532,-436,4385,673,-928
1579,-583,-1089,-523,-1030,-365,3053,537,-892
1579,-232,2252,1464,2742,-714,-9353,-1102,-656
1579,-53,1762,1135,2073,-661,-7616,-727,-776
1579,-227,-1169,-836,-1791,-1310,4748,852,-835
1628,-201,-766,569,-503,96,887,305,-1442
1628,-1259,-1742,-106,-1632,-462,4469,872,-1529
1628,-3,1203,1139,1805,-896,-5482,-131,-806
1628,-870,-888,277,-1550,-824,3848,962,-1547
1628,595,-627,255,-1328,-781,3202,900,-1393
1628,761,-3367,1598,-3151,114,8593,1175,-1409
1628,710,-2607,1982,-2237,454,6369,957,-1316
1628,609,-675,589,-927,-749,3091,604,-1433
1628,-380,-595,398,-718,-1397,2584,506,-1289
1628,753,307,261,68,-1924,196,283,-1233
1675,439,3236,1892,2747,-1953,-10432,-969,-870
1675,1657,2534,1500,2057,-922,-7746,-745,-872
1675,576,-1408,-438,-960,-23,3314,391,-1004
1675,633,-1299,-158,-738,337,2770,322,-808
1675,230,-642,600,78,562,331,26,-710
1675,-1224,83,-1590,-1389,-1095,3084,580,-464
1675,-829,-106,-1421,-859,-759,2267,277,-493
1675,-849,2550,1955,2799,-1745,-10333,-1498,-109
1675,389,-1713,-545,-2239,-1960,4946,331,-858
1675,433,-1332,417,-1067,1568,3509,844,-1373
1771,79,-831,-1159,-1489,-847,3377,720,-1164
1771,-995,-675,-1057,-1130,-712,2962,642,-1118
1771,633,-453,-1895,-1153,-1446,2184,445,-1160
1771,-1002,-148,-1310,-795,-737,1655,481,-1070
1771,1059,2464,-735,3104,495,-9028,-1080,178
1771,1034,2459,-496,3202,684,-9048,-1042,245
1771,-1739,-382,938,-1169,1570,3748,929,-727
1771,-1713,-286,368,-1208,-458,3208,750,-753
1771,-1052,-1019,552,-980,172,2580,624,-761
1771,576,-899,437,-1032,176,2588,576,-828
1820,-1124,2937,2485,4054,-385,-12012,-1038,93
1820,-1318,-3243,-754,-3392,922,9233,1360,-677
1820,-1282,-2509,-494,-2681,1205,7393,1162,-760
1820,-748,-1374,80,-1424,1376,4188,854,-742
1820,-611,-498,-89,-905,1233,2668,713,-984
1820,894,-334,388,-412,1351,1554,571,-897
1820,700,2698,1552,2099,-1144,-8961,-492,-94
1820,1947,2056,1526,1991,-840,-8045,-487,48
1820,1065,-1089,-18,-1137,-1275,2808,574,-572
1820,628,-775,-220,-948,-1388,2045,446,-495
1869,963,2024,25,1256,-1326,-6333,-330,-333
1869,-662,-889,-291,-1549,-409,2939,807,-669
1869,1018,-283,5234,-1338,268,2802,970,-489
1869,-563,-234,3099,-738,233,2232,796,-419
1869,745,-2159,-3583,-3423,-4087,7405,1502,-808
1869,667,-1591,-3316,-2423,-4553,5494,1197,-834
1869,-888,-437,-1404,-787,442,2186,658,-928
1869,-390,-224,-1456,-1048,187,2034,635,-864
1869,1150,319,-1175,-661,-238,375,487,-850
1869,-923,2054,1381,2569,-1698,-9061,-876,17
1917,-635,725,642,433,-2102,-3448,-329,-194
1917,768,-512,-243,-545,690,1892,522,-1020
1917,-862,-255,-559,-486,542,1726,495,-869
1917,-642,189,-762,-207,121,973,412,-812
1917,-776,-939,-500,-642,-2167,1396,417,-408
1917,477,-580,-57,-109,-912,158,209,-355
1917,-966,-2797,-1003,-3300,-169,8695,1419,-923
1917,-728,-2122,-151,-2373,1292,6770,1265,-1031
1917,888,123,-1216,-972,-1228,2022,779,-958
1917,-538,-49,-1068,-786,-900,1747,507,-772
1966,-71,126,3232,311,2697,-1738,-263,-843
1966,-713,-356,3660,-428,2231,1066,181,-1042
1966,-594,5102,4736,6277,-636,-20509,-2023,469
1966,711,3636,4150,4374,-447,-15750,-1639,450
1966,144,-1785,584,-1729,-1290,4248,866,-818
1966,-738,-1489,224,-1623,-1711,3595,822,-986
1966,691,-669,-477,-1246,1471,2704,915,-964
1966,799,-122,-733,-878,1292,1738,745,-805
1966,-374,576,-631,-205,1526,-260,473,-689
1966,605,-489,-1424,-2084,-1695,3526,666,-660
2014,576,2745,773,2923,-637,-9560,-705,-273
2014,-459,-888,-578,-1061,-464,2473,760,-957
2014,429,-941,4,-771,-6,2166,672,-858
2014,-528,-398,251,-1,155,79,375,-695
2014,1724,2508,-645,1742,-2305,-7685,-350,-448
2014,221,5490,2004,5809,-1939,-19362,-1762,273
2014,292,-999,-6452,-1641,-3679,4178,677,-227
2014,378,-710,-4373,-1203,-2818,3124,589,-287
2014,614,-1925,-169,-1395,-780,3282,644,-540
2014,-145,-1367,-168,-1434,-230,3050,681,-595
2062,-383,-453,871,-559,1623,797,509,-687
2062,-1844,-3184,-60,-2724,254,8084,1295,-864
2062,-585,-2806,-272,-2255,-802,6747,1095,-735
2062,-1366,-1997,-223,-1326,-1991,3740,748,-634
2062,167,-1024,1428,-108,3500,2165,226,-340
2062,-1388,-717,1047,236,2114,930,90,-292
2062,1338,1946,1884,1592,-125,-6619,-659,-36
2062,266,1829,1671,1304,-103,-5716,-588,-113
2062,-1166,-1654,1191,-702,2690,2366,534,30
2062,-772,-1304,1110,-484,2518,1703,383,-4
2111,496,1056,705,1122,-1519,-4734,-445,244
2111,1260,1288,-3099,320,-1560,-2299,291,-756
2111,-218,3703,-702,3674,-924,-12311,-906,-428
2111,-424,3050,519,3310,-420,-11746,-1046,-309
2111,505,-1673,-2371,-2711,-390,7008,1433,-593
2111,-699,-1143,-2045,-2244,-434,5472,1154,-399
2111,-577,-1181,-1012,-1344,-68,2937,691,-621
2111,-35,-895,-822,-1107,-706,2431,599,-596
2111,1854,1680,2946,1055,-131,-5019,68,-771
2111,1817,2197,4207,2180,326,-7908,-278,-624
2160,976,1713,3561,2022,200,-5908,393,-692
2160,-1530,-1929,-861,-1309,2262,4255,1182,-157
2160,-1061,-1424,-834,-1378,1917,4085,1183,-289
2160,-851,-926,-720,-1167,1170,3129,1105,-271
2160,-1046,3097,2327,3635,-552,-11721,-971,869
2160,-704,2383,1878,2727,-775,-9308,-900,785
2160,1244,-1868,-2539,-3173,-2495,7968,1563,-268
2160,1132,-1639,-3007,-2971,-2148,7047,1476,-262
2160,427,-1132,-2273,-1415,-263,4214,1078,86
2160,-951,-1074,-1372,-1211,-137,3794,998,60
2209,-1296,3004,1728,4133,15,-12356,-1160,1047
2209,-1452,1810,1326,2665,21,-8165,-749,907
2209,-887,-4263,-1024,-4754,-555,14107,1822,129
2209,-396,-3009,-706,-3294,-347,10422,1520,-19
2209,-348,-1572,511,-1204,-126,4187,644,170
2209,1089,-1188,1101,-926,93,3423,524,362
2209,1101,3154,2113,3736,-375,-11452,-1069,745
2209,1132,2390,1814,2786,-519,-8778,-818,490
2209,863,-1523,-313,-1573,-510,5111,1190,-276
2209,1088,-1397,-229,-1403,-438,4663,1174,-260
2258,644,-1686,303,-1441,-591,4298,757,-25
2258,140,-1203,564,-624,-452,2445,662,127
2258,576,-822,529,-798,-945,2820,819,-198
2258,-833,-709,403,-589,-1515,2096,758,-211
2258,-503,-1745,-674,-1390,2152,5928,1189,-188
2258,486,-927,-4508,-818,1199,3892,937,-40
2258,738,-407,373,-690,-600,1633,282,369
2258,293,-422,259,-500,-774,1210,204,374
2258,-831,125,885,109,-803,-599,116,328
2258,556,2811,1575,3217,-927,-9505,-988,1024
2306,332,1646,3563,1889,-2075,-7571,-853,786
2306,857,-631,596,-1135,-8,3755,620,106
2306,-417,-415,502,-923,108,3315,559,85
2306,-438,247,541,-78,-71,733,205,183
2306,535,-835,132,-279,-871,1684,304,118
2306,547,-556,47,-164,-895,1245,398,-60
2306,229,-2538,-835,-2760,-2072,8234,1311,-201
2306,100,-2108,-605,-2061,-1832,6535,1175,-231
2306,-395,-808,2686,-508,183,1460,701,-386
2306,410,-638,3441,-323,326,1093,622,-252
2355,-1247,2306,5264,3620,-1540,-11315,-861,303
2355,243,154,812,487,-2321,-2812,-27,-13
2355,-189,102,-204,2065,-3493,-5684,-523,432
2355,-1548,1416,1026,3768,-2944,-11088,-1101,827
2355,-1392,-1751,-140,-2089,-264,6598,1451,-785
2355,-1588,-1564,282,-1425,-57,4847,1048,-396
2355,1105,-594,1211,-794,-2055,2974,551,-247
2355,1214,-494,1460,-807,-1532,2651,594,-369
2355,613,41,1645,-213,-1129,743,448,-219
2355,-248,-354,-3903,-1651,-1960,4735,1012,-409
2404,-896,2351,-5412,1946,-882,-5585,-397,53
2404,282,-391,-5912,-1152,-984,3349,690,-265
2404,1289,108,-1449,-1062,-1133,2423,648,-710
2404,155,57,-1366,-1015,-1366,2053,687,-789
2404,1794,4182,2179,4938,2003,-15950,-1567,-210
2404,1146,5849,4320,7658,3211,-22669,-2499,585
2404,1016,-1230,-1476,-2283,-288,5730,907,-545
2404,540,-1139,-1307,-1630,-503,4339,638,-525
2404,-360,-259,-1073,-344,-485,1526,199,-532
2404,426,-1193,3757,-977,180,3299,532,-768
2452,1146,2001,-4400,1543,-611,-4092,-352,-378
2452,-47,4159,-527,4261,-799,-12559,-1476,76
2452,80,-3311,3307,-3038,-1321,7544,921,-465
2452,-881,-2640,3063,-2486,-668,6097,862,-590
2452,836,-775,-3121,-2620,-4817,4679,872,-697
2452,680,-761,-2664,-2470,-4281,4217,812,-569
2452,-7,1551,5593,1718,764,-5605,-313,-815
2452,1075,1240,7488,1826,841,-5535,-367,-674
2452,880,2078,9082,3331,816,-10114,-1096,-56
2452,-93,-111,-5239,-2305,-4747,5097,1106,-681
2501,-1160,-1673,2898,-778,-2678,1397,170,-335
2501,-755,-2579,3331,-355,-530,2992,317,-387
2501,45,2697,954,2512,-510,-7496,-768,276
2501,-117,3488,1466,3407,-1249,-10786,-1265,366
2501,1408,-1420,-2794,-2132,-3562,7213,746,-569
2501,1393,-444,-10360,-2094,-5104,6338,712,-741
2501,799,-344,-2306,-1894,-2563,4629,890,-418
2501,611,-492,-1430,-1620,-1812,3976,863,-379
2501,569,-104,-627,-798,-1344,1532,603,-120
2501,-1311,373,1023,1530,-5217,-6457,-1070,962
2550,667,997,3748,2829,-228,-5345,-205,-98
2550,-574,-65,3152,1124,655,-1645,-8,-219
2550,-825,-2020,1942,-1174,916,4806,860,-698
2550,-473,-2349,2208,-707,1080,3469,688,-473
2550,1189,2452,4280,3924,-3854,-9738,-1186,277
2550,597,2117,3795,3097,-2655,-9183,-1193,268
2550,-252,-683,-3498,-2592,-600,7617,1257,-710
2550,790,-781,-2603,-2145,-1048,6348,1024,-491
2550,972,-32,-2441,-1218,-3878,3478,577,-281
2550,-505,-916,-369,-2137,-3514,4499,726,-496
2599,1565,4503,6192,4303,2838,-12085,-1073,-26
2599,327,3150,7229,3187,3218,-9364,-863,-113
2599,-72,-2563,-8821,-4895,-2763,13421,1705,-426
2599,125,-2582,-5789,-5033,-3099,13100,1764,-409
2599,-433,-1829,10335,-1487,1597,4637,872,-1013
2599,-439,-1361,4797,-1048,1104,3513,665,-957
2599,1746,3776,-160,3608,-1711,-11000,-994,-734
2599,1094,2917,-2582,2490,-2848,-8500,-717,-945
2599,-613,2384,-2900,2278,-2765,-7668,-605,-872
2599,-910,-1140,-5246,-2529,-2027,5648,878,-1139
2648,273,109,-1097,-952,-462,406,-344,-314
2648,119,-771,-6564,-2175,-1108,4632,207,-341
2648,678,-1019,1794,-1720,359,4055,1007,-1260
2648,1811,-760,1917,-1106,65,2309,678,-775
2648,300,-3517,4566,-3852,3657,10902,1414,-328
2648,-945,-3007,5409,-2975,3501,8782,1247,-450
2648,-1123,-2261,5862,-1559,2166,5228,910,-404
2648,-981,-1264,13242,-515,2977,2328,253,-157
2648,-667,-690,13051,-200,1918,1393,204,-188
2648,973,1611,8839,3463,-548,-10051,-893,389
2743,373,-350,13500,165,2450,-867,-93,-365
2743,2188,3533,-3099,1210,-9604,-9158,-1174,-206
2743,2134,3489,-175,1371,-5893,-8348,-998,-505
2743,2041,3968,2611,2188,-3397,-9630,-988,-618
2743,639,-1172,7562,-1567,259,3742,666,-1156
2743,-2,-1020,6821,-1018,-180,2842,575,-958
2743,-1070,-1107,3988,-878,-1486,2032,346,-1308
2743,-976,-1494,4939,-456,-1674,678,136,-1093
2743,457,-2281,-4102,-2869,-7400,6041,589,-1034
2743,481,-1962,-416,-2055,-3292,4380,540,-802
2792,3163,3772,1402,3370,-200,-10314,-1254,-24
2792,533,-458,4396,-486,2361,942,-75,-715
2792,-830,-562,5606,-387,2943,715,-128,-518
2792,-890,-205,5294,152,2560,-712,-71,-402
2792,348,1556,13867,2644,5025,-8621,-1085,-230
2792,-629,1883,12115,2212,-1454,-7973,-960,-251
2792,-223,-497,-181,-1536,-5318,2881,-80,-719
2792,-660,-1394,2259,-1173,-2587,1907,-91,-413
2792,620,-1497,6547,130,8535,1664,177,-1174
2792,738,-944,4651,1075,8905,761,-13,-1196
2841,-62,4431,5196,3829,-18627,-14536,-1613,-266
2841,743,2631,7158,2988,-11763,-11183,-1436,-118
2841,-679,-3508,16353,-2847,3426,7692,769,-1096
2841,-924,-3262,16994,-1976,4378,6298,550,-943
2841,452,-3748,5631,425,-3048,2022,-94,-843
2841,-916,-3003,-7540,326,-6615,810,-312,-533
2841,622,656,7031,1978,-7043,-8744,-1860,223
2841,-59,1266,7578,1592,-5029,-7480,-1452,38
2841,363,1867,10357,2644,1060,-8395,-1386,-103
2841,797,-522,11410,-879,-2273,3550,95,-1401
2937,1690,-1601,28219,944,-1741,-3951,-1211,-444
2937,-1813,-2345,22999,-630,-10525,864,-1355,284
2937,-1761,-2298,22343,-751,-8171,845,-1138,229
2937,-1117,-1534,20845,-23,-6836,-729,-991,17
2937,-217,-183,18910,-1173,-5089,2339,-27,-1368
2937,155,102,18316,-638,-4772,1707,-37,-1337
2937,691,-3720,22527,-1251,-8695,3305,-273,-1267
2937,-164,-3445,17454,-2114,-7603,3280,-68,-1001
2937,2478,1422,14504,-716,-4907,1773,81,-2007
2937,2147,804,17717,-599,-3832,1289,-95,-1654
2996,-532,433,5281,53,-4137,-2527,-1299,-1039
2996,1081,886,32271,5771,10700,-16562,-2165,-887
2996,-205,2107,30210,6781,14129,-18371,-2430,-711
2996,-226,2062,21047,5629,11194,-15167,-2260,-639
2996,202,-1745,31421,-509,9035,5148,-45,-1913
2996,1433,-683,22375,-207,3306,4099,-58,-1838
2996,-741,-5020,31438,-545,-1328,2646,-213,-1753
2996,705,-4989,34461,330,-458,1053,-314,-1750
2996,-1340,-4143,17155,-1576,-15755,3947,72,-2533
2996,-138,-3247,13088,-1659,-16868,2859,-25,-2264
3045,1484,477,43989,3886,-7529,-8627,-1064,-1836
3045,954,26,35543,2766,-16187,-6534,-1297,-1515
3045,450,-1662,33417,2265,-6268,-1825,-719,-1572
3045,-650,-3251,52375,7635,2374,-18022,-3360,459
3045,-1197,-3777,56993,7698,10579,-17521,-3277,486
3045,1525,565,23618,-3760,-29333,8550,1312,-3243
3045,-324,-66,20522,-3061,-21991,6906,902,-2610
3045,-337,-883,21945,-1731,-15518,3783,280,-2025
3045,-1847,-4185,21689,-2597,-22958,4488,-73,-1975
3045,-882,-3402,21830,-2793,-11334,3993,476,-2351
3094,1826,4855,35683,-362,-8457,-5142,-514,-2792
3094,1672,2154,27054,-3313,-4905,5362,602,-3122
3094,32,765,28553,-2074,-1906,5951,807,-3007
3094,-629,-2649,52743,-2207,-1192,3927,-92,-2251
3094,999,-1358,55861,-1397,-3361,2822,-71,-2205
3094,1459,4498,41471,5031,-15214,-19282,-2404,-1026
3094,-390,3581,37626,4943,-11393,-17161,-2450,-825
3094,7,1699,36402,3077,-3397,-9435,-1318,-1283
3094,2094,-908,33816,-4674,-17473,8547,1554,-2969
3094,1800,-1361,36054,-3366,-10442,6840,1135,-2464
3143,1488,1433,65097,1854,-24657,-9685,365,-3160
3143,1342,-92,65782,174,-22718,-4797,844,-2989
3143,-286,-1006,66636,139,-14152,-3585,679,-2400
3143,3388,1316,29038,-7697,-58064,11894,3160,-3971
3143,2990,916,29100,-5717,-37925,10188,3057,-3715
3143,349,-3487,64508,-171,-16839,4580,1344,-2460
3143,-60,-4193,66031,-2010,-24882,4790,1530,-2337
3143,-1468,-3828,61857,-3878,-36610,4445,1861,-2295
3143,1092,-775,64416,5840,-10464,-1174,1760,-2576
3143,959,-4800,53537,541,-14592,9283,2914,-2943
3191,11,2074,45706,-673,-56520,-8278,1204,-1377
3191,-1833,-772,48341,-1725,-53530,-4964,1288,-1394
3191,-2268,-5044,58051,-1460,-40197,1038,1823,-1589
3191,-884,4168,37833,7337,-45881,-11574,1807,-1519
3191,-2940,361,46765,3460,-56233,-8355,1843,-1328
3191,1380,-645,82721,-10120,-51009,8283,6124,-3956
3191,825,-391,79672,-1334,-40624,5611,5470,-3605
3191,-625,19,71367,6598,-34139,2339,4773,-3194
3191,-539,-2218,101314,-5441,-67828,5969,6685,-4476
3191,-2455,-1426,97179,-3348,-40845,3647,5960,-4026
3239,201,-3920,94147,2170,-45391,-5149,5972,-4221
3239,381,-2835,88578,-775,-42439,-2496,6027,-4231
3239,-1045,-4129,78563,-5571,-40810,4539,6594,-4167
3239,1018,-199,109339,5404,14371,4354,7604,-5171
3239,285,1546,90032,6504,-28626,5510,8338,-5674
3239,2114,-1904,96367,6079,-19116,5017,9350,-7189
3239,634,-729,101532,9270,-11025,-3967,7831,-6415
3239,-2575,-10779,140682,7117,20856,3382,6927,-4753
3239,-2188,-11972,130269,6271,9810,2800,6472,-4419
3239,-2560,-8468,104236,4622,-20508,1499,6434,-4577
3288,732,780,59253,-1527,-50889,-10748,5429,-5023
3288,-1209,-3093,59239,1437,-29756,-8486,4454,-3965
3288,-1713,-3348,69798,3022,-14065,-8380,4263,-3794
3288,2804,6764,88608,3796,-15714,-7395,6796,-7215
3288,3101,6598,77487,2214,-11310,-2797,7192,-7511
3288,563,-4658,69522,5513,-20804,7391,7095,-8171
3288,1142,-1980,62286,2459,-21699,6664,6967,-7832
3288,1648,839,60291,582,-22267,4999,6735,-7458
3288,-200,-1267,56370,7163,-43723,-9343,4027,-5404
3288,1043,-1023,57139,5897,-58738,-6037,4805,-6043
3337,-1828,1867,59287,-2222,-43539,-5180,4215,-6510
3337,-1336,544,59814,-3637,-34271,3350,4937,-7031
3337,-1513,-1952,62829,-2626,-21642,7095,5166,-6775
3337,-299,98,35978,1625,-54807,6596,5298,-8213
3337,-492,1512,21344,-22,-74283,5498,4570,-7362
3337,1900,-280,60602,-9656,-60304,14194,5981,-8203
3337,553,-1822,61251,-8368,-54004,14189,5788,-7702
3337,-868,-1438,67277,-7085,-53433,10085,5288,-7278
3337,2652,1538,79397,-9555,-75877,6086,5503,-8822
3337,2122,3096,67546,-3687,-63775,3790,4605,-8231
3385,777,4346,90984,-9808,-93159,-6795,2589,-6758
3385,-210,2564,86332,-5920,-84405,-5337,2558,-6481
3385,967,630,86372,-2941,-79898,-5054,2399,-6115
3385,-324,-3413,106021,-4539,-80084,8311,4090,-6566
3385,-543,-4509,101525,-327,-73831,6266,3321,-5809
3385,1411,-1471,93002,-1973,-65546,3886,3369,-6408
3385,1535,-829,88260,-3122,-65433,3244,3148,-5927
3385,2346,1396,92683,-4865,-104489,11268,4975,-6695
3385,654,1649,94577,-2363,-87188,8948,3803,-5561
3385,360,1607,93547,548,-85099,4840,2247,-4036
3434,988,7805,87783,-4041,-124596,-4276,1682,-3611
3434,2299,5803,72214,-2228,-95972,5730,2910,-4001
3434,1382,4371,78241,-41,-73816,1416,2057,-3153
3434,-685,1644,105204,-1541,-107515,-6568,234,-2218
3434,-572,1882,90937,-1166,-101321,-6513,73,-1975
3434,3179,1457,86892,-873,-108918,6276,2679,-3860
3434,2547,1439,75268,-3128,-107153,4908,2200,-3238
3434,2112,1541,71272,-3496,-101376,2171,1549,-2688
3434,2219,3900,81859,-1885,-104300,4654,2626,-3431
3434,1656,2503,83843,-1901,-98568,2793,2234,-3319
3483,274,858,77860,-3012,-130137,4277,1905,-3353
3483,858,3106,62751,-3804,-114996,6033,2248,-3514
3483,1020,7676,54978,-849,-125042,-6486,352,-2149
3483,483,-194,67467,-5380,-167592,3588,753,-1832
3483,-1006,444,53889,-5242,-160481,3465,691,-1710
3483,-3628,-6156,79152,570,-160190,-9241,-2168,119
3483,-1795,-1862,69926,842,-155985,-7791,-1108,-858
3483,-962,2900,76386,5495,-155623,-19492,-2435,-221
3483,-489,-1312,57880,-5025,-133949,5951,748,-1719
3483,-964,-1141,53590,-847,-137313,4485,420,-1288
3531,-149,1349,74427,8886,-148147,-12621,-1407,-497
3531,-277,934,70038,10402,-136503,-13692,-1720,-195
3531,976,1520,61058,10344,-124860,-11841,-1690,-116
3531,-2143,-10256,76844,296,-119859,6770,657,-1296
3531,-1552,-9192,70314,-610,-119259,6624,717,-1370
3531,-71,-2046,45043,3088,-116041,2292,35,-853
3531,300,-987,43189,913,-117644,3151,383,-1203
3531,-694,-416,43997,-959,-128082,2697,402,-1165
3531,-308,6561,17313,5616,-155844,-6699,-1514,92
3531,-30,4526,18191,3666,-149861,-7179,-2128,726
3579,-4476,-7778,53318,2460,-158322,-3644,-2559,1202
3579,-2679,-2594,55425,5626,-163377,-11722,-2956,1042
3579,-761,-460,31383,482,-147505,-1519,-841,-647
3579,1078,-725,29992,-7385,-142586,5113,483,-1491
3579,1202,-131,29113,-4208,-138049,3313,487,-1654
3579,414,-3384,20011,-870,-112949,7718,241,-1306
3579,-4,-2253,27734,-4791,-105527,7933,844,-1977
3579,1441,963,23833,-4752,-138152,5623,1341,-2767
3579,1775,1108,24902,-3468,-122027,5041,1320,-2741
3579,2712,1262,26969,-2317,-112924,3251,748,-2286
3627,-875,7451,25695,-110,-86605,-7050,-1182,-699
3627,-754,3968,24001,-3621,-56444,3731,44,-1435
3627,-168,1802,23662,-7112,-51112,5556,340,-1429
3627,579,2637,23320,597,-46734,2177,28,-1535
3627,813,1388,23002,40,-47580,1616,-183,-1036
3627,-836,-5298,37282,-1213,-33338,833,-523,-1053
3627,-1375,-4953,44204,-545,-33336,340,-320,-1292
3627,832,-3218,29092,79,379,8464,1313,-2776
3627,985,-962,25963,-21,-3133,6871,1017,-2662
3627,934,926,21172,1416,-4359,3425,679,-2453
3676,193,-1859,22521,3928,-55254,-7185,-1280,-849
3676,-1237,-4509,22958,2672,-3479,302,-707,-814
3676,112,-2319,29799,3920,-5403,-4962,-1480,-161
3676,677,6171,22207,-2659,-108036,-18354,-2815,240
3676,-954,2414,18595,-4062,-54479,-9586,-1883,-65
3676,2646,508,8144,-862,26579,5244,1517,-2918
3676,1743,-1009,8477,435,24967,2627,605,-2066
3676,1224,1519,-2384,11191,18498,797,-106,-1389
3676,1543,2310,-948,1526,10378,2369,539,-1754
3676,383,2363,6737,-11102,-11027,1941,820,-1816
3724,-830,-4801,32009,436,-7442,699,-1013,-408
3724,524,-495,37765,1292,-106933,-10654,-2356,-102
3724,-192,-458,14889,-1498,-50665,-622,-280,-850
3724,334,-250,3138,-2389,-14371,2951,106,-1096
3724,605,780,4088,1425,-20462,2654,389,-1287
3724,-1502,2017,30352,12315,-269678,-20002,-3678,2081
3724,-2355,2762,27199,6058,-301680,-22445,-3986,2114
3724,-382,-2323,10445,492,4257,5661,887,-1468
3724,1033,-1386,2362,-7732,-11085,5486,868,-1398
3724,415,-1758,-281,-7140,-37268,2520,97,-943
3773,-822,2871,12808,5566,-377427,-11019,-1582,375
3773,942,2362,9298,2172,-270484,-6090,-784,-67
3773,986,2565,11010,-9,-276589,-6951,-890,20
3773,1950,262,1161,-6018,376481,7692,1143,-1864
3773,2035,383,6490,-4836,329743,6942,1258,-1869
3773,-990,-1005,3909,-3992,524465,3912,254,-1342
3773,854,-683,1161,-2601,507628,3784,382,-1287
3773,-720,-5637,20666,-416,-482495,2669,-648,-717
3773,-1657,-5936,11250,-2762,266785,8873,895,-1372
3773,23,-2776,974,-1427,127345,5256,489,-1306
3822,345,4597,12456,3477,-652781,-10127,-956,-901
3822,-2066,793,10652,1016,-313915,-3438,-621,-864
3822,-1750,-260,7350,4042,-113037,-3226,-694,-491
3822,-844,2676,23061,2304,-765476,-7022,-1140,-530
3822,-327,3635,17525,730,-829047,-6874,-1033,-415
3822,-3369,-5757,9456,2714,961959,4024,-224,-695
3822,-1918,-5534,16002,-317,887654,3301,-271,-696
3822,1188,37,-12681,-2222,993912,3900,380,-1591
3822,1648,1839,-13578,-3813,966543,3964,544,-1784
3822,161,2574,-7048,-4338,848540,2836,450,-1634
3871,-1265,1185,3311,757,-414117,-4186,-743,-811
3871,-1158,-1480,1677,-2482,483129,5440,427,-1385
3871,-904,-1115,2966,-523,501802,2749,-105,-909
3871,-515,1401,-17065,10846,998268,1298,-651,-875
3871,2001,2833,-6194,9004,817516,679,-124,-1279
3871,1939,2118,4243,-4632,-543152,-7110,-925,-123
3871,1298,2085,5182,-6390,-561613,-6884,-1049,150
3871,1758,475,-8912,-6669,1095844,6126,1103,-2092
3871,1615,669,-7656,-7586,1046542,5559,908,-1903
3871,1125,484,-3120,-7589,882977,3374,447,-1557
3919,56,-2874,22481,2793,488657,-5514,-599,-894
3919,210,2723,17081,10837,-628147,-16042,-2248,230
3919,-904,5861,3019,12980,-951112,-15244,-2460,627
3919,577,-4558,-4361,-2118,971363,12571,1348,-1993
3919,757,-3435,-6029,-155,953372,9417,953,-1627
3919,871,332,316,3882,1159815,3576,789,-1799
3919,13,750,-820,7141,1028132,3250,983,-1959
3919,-962,3109,-14329,6031,-428795,-10132,-1638,-484
3919,-39,3108,-16669,3858,-372348,-7710,-1237,-516
3919,103,2374,-10872,4810,-548443,-9442,-1668,-111
4015,241,1359,16715,-226,-757730,-11657,-1753,89
4015,-788,573,13579,-2468,-535852,-7347,-1113,-234
4015,633,-957,5305,3113,1153485,2288,334,-1709
4015,-574,-212,3800,4255,1075020,1520,73,-1636
4015,-138,-1310,5728,5328,908943,-1011,-694,-914
4015,330,-553,-164,-7319,1097589,3473,-18,-1086
4015,-1486,-2421,4041,-7126,1023635,2389,-267,-593
4015,137,-3657,10409,-6016,-176717,7095,305,-1104
4015,324,-3999,3619,-384,256634,7738,705,-1291
4015,1692,2082,-17446,-9609,626203,5457,1454,-1695
4064,-128,1276,8461,1963,546187,-11800,-1557,-467
4064,-1822,-4553,3410,-3608,529528,770,-922,-330
4064,-836,850,2982,-3130,481227,-7947,-1585,-32
4064,-473,1389,1214,1414,399414,-6669,-791,-1122
4064,939,1658,8618,1004,368191,-8213,-372,-1122
4064,1563,-980,-3464,2137,330516,3696,854,-1955
4064,1057,-1533,-3881,1202,308588,3301,772,-1837
4064,-754,-371,-8922,-529,243960,1896,284,-1714
4064,681,-251,-9196,-1871,226450,1301,329,-1671
4064,-1244,-3946,12716,891,174698,3800,518,-1410
4113,216,6640,-19271,-141,134967,-3742,-88,-1305
4113,1217,3094,-20982,-3223,138367,4860,954,-1684
4113,1223,2544,-12226,140,123490,329,541,-1324
4113,806,-2357,-1638,2471,78730,1046,495,-1647
4113,1000,-2362,3116,3303,69092,-318,522,-1513
4113,204,4940,248,2419,7044,-7700,-708,-982
4113,-587,5522,4949,4559,-5727,-14244,-1642,-368
4113,830,-1120,-4125,-346,-7998,2927,777,-1990
4113,-1101,-3297,4200,-2685,-9595,2515,368,-1494
4113,-109,-3810,8354,-2183,-13840,22,-92,-1095
4162,-636,7559,-16947,4356,-88520,-13582,-735,-896
4162,-567,6672,-13151,4122,-87168,-12386,-851,-887
4162,44,4536,-5752,2661,-80623,-9205,-528,-1174
4162,281,-3557,-665,-2482,-82292,8095,1535,-1962
4162,977,-3416,-1760,-1898,-80066,6820,1234,-1760
4162,1150,-2268,14364,1653,-112660,3132,926,-2215
4162,244,-3204,18372,67,-109533,1334,504,-1645
4162,-104,-2195,8200,-3063,-157903,-5646,-1115,-1128
4162,-1117,-1031,18874,5826,-165928,-15055,-2271,-321
4162,440,842,26512,10697,-171869,-21269,-3004,186
4258,-1288,-2379,-22108,1928,-143491,6195,872,-1614
4258,-1007,-2742,-13350,2783,-133426,6615,1024,-1841
4258,713,-1059,-5284,-5968,-144057,4816,1055,-2165
4258,-587,-680,-10323,-1590,-136940,4231,1034,-2015
4258,202,-748,-12901,1602,-131731,1560,268,-1361
4258,-785,-2984,3394,835,-153601,2801,441,-1690
4258,215,-2545,6556,643,-146445,1846,212,-1530
4258,680,-2838,-4870,-1564,-169764,3458,515,-1536
4258,1245,-411,-13347,-38,-161890,3245,792,-1838
4258,-528,-2991,-5178,-1059,-183515,682,-61,-834
4307,1239,4970,-222,4697,-214034,-15453,-1353,-177
4307,1166,5090,-8172,1511,-199867,-11318,-986,-287
4307,-1160,1885,-14563,9214,-228170,-9451,-784,215
4307,-858,4868,-5644,9749,-226854,-14652,-1415,511
4307,177,-2894,-5672,-1960,-191138,5686,1215,-1469
4307,-878,-2612,-3064,-1560,-182706,4658,1123,-1225
4307,-613,-1966,-1609,-927,-177357,2521,882,-1046
4307,415,-1727,-22186,-1220,-196478,3439,622,-1126
4307,-254,374,-21402,2861,-190052,-21,182,-994
4307,1192,351,-29289,-8748,-203160,8855,2386,-1709
4356,94,209,-3968,4612,-222798,-7472,-781,-94
4356,352,-2987,-8658,2769,-194980,3300,757,-994
4356,1232,1076,-18169,-2078,-186482,3929,926,-1101
4356,-502,256,-16860,-1233,-177187,2541,425,-723
4356,-845,-3686,10488,-9228,-167529,5782,1443,-1467
4356,1085,-4241,8819,-7101,-141166,12196,2360,-2356
4356,589,-2318,7051,-2703,-133122,7821,1734,-1982
4356,131,-1139,-18406,-1303,-63013,2464,607,-736
4356,-1239,-1526,-13523,-132,-57586,1685,326,-525
4356,-374,1330,-26048,1883,2080,-10,146,-814
4404,-2001,259,-8635,2087,-12872,-12590,-2353,1021
4404,-1159,332,-2733,3980,-8408,-10556,-1609,413
4404,3059,-1312,-6001,-3895,60717,8214,2372,-2255
4404,3095,-429,-10273,42,57991,6835,2104,-2053
4404,-999,179,-30356,-3832,70768,1776,308,-1082
4404,98,233,-27612,-2077,66499,428,146,-874
4404,-479,-4345,-16147,-2003,85435,4754,247,-883
4404,-78,-2549,-25776,-2362,84939,5210,565,-1116
4404,-1327,-433,-32516,-1982,77448,2061,354,-979
4404,137,-1130,-23773,354,101561,1246,991,-1221
4500,-1815,-2284,-15495,-1212,223896,1144,164,-802
4500,-563,-1909,-12052,-1016,215024,1963,395,-1072
4500,-931,1444,-31304,2633,263893,1395,860,-1871
4500,-850,1540,-26437,845,247393,960,992,-1933
4500,-787,825,-13916,1383,245639,-7631,-696,-878
4500,645,3677,-9199,6765,215653,-13946,-1154,-562
4500,-337,-58,-22526,442,250559,3153,801,-1681
4500,-1370,-357,-17280,4268,234645,-569,-46,-1507
4500,-1080,-1143,-11156,3151,218445,-767,23,-854
4500,295,-1532,-7864,-2103,269166,1158,275,-1484
4549,218,5491,-7154,7264,242484,-14276,-829,-814
4549,29,4368,-15997,4308,234208,-9890,-533,-756
4549,-303,-2705,-21620,-5011,303446,13041,2001,-2807
4549,-188,-1959,-18648,-3805,287281,9418,1671,-2536
4549,-1068,-809,-10570,-4885,344036,3819,818,-2031
4549,-570,366,-9565,-4369,324808,2196,710,-2058
4549,634,4751,-9180,3637,344750,-12952,-1019,-1009
4549,1008,3645,-8745,3001,329864,-9281,-512,-1022
4549,20,3519,-5665,3916,309478,-10383,-755,-791
4549,2850,783,-8600,2339,375152,5363,1632,-2874
4598,793,1220,-7503,-926,346544,-6335,-855,-921
4598,417,-2122,-7877,-1624,343050,3669,477,-1522
4598,-2115,-3510,-4381,2147,346507,2770,489,-1307
4598,-31,-1094,-9991,2325,325459,2481,948,-1612
4598,1872,-3042,-22606,-1821,319787,11567,2085,-3023
4598,2264,-906,-25844,-8825,301006,10019,2069,-3065
4598,-2035,-1212,-5389,-552,305469,2132,443,-2089
4598,-1183,-728,-2882,49,287433,1979,724,-2172
4598,1137,989,-4150,-1124,267056,412,881,-2240
4598,-444,1010,-1178,3580,247240,-10146,-1144,116
4646,198,2025,-7155,437,235001,-7473,-510,-381
4646,-692,2435,-7974,805,218954,-8702,-744,-218
4646,-383,-790,-16411,-1860,254234,2392,137,-1376
4646,143,157,-15698,-1797,240972,2358,404,-1507
4646,-641,1099,-22738,-10588,267542,4402,1183,-1289
4646,-576,1293,-19403,-6478,249990,2923,1217,-1028
4646,-643,-2880,3841,-4817,243515,-1360,-468,534
4646,-1583,-6073,1462,-12926,253964,10520,986,-180
4646,-967,-4610,2256,-8024,242111,7525,796,-227
4646,725,-90,-11527,3206,283504,1965,691,-899
4695,786,-2386,1607,4757,285335,-1388,-72,-794
4695,1426,-2147,-131,4507,277772,2360,594,-1319
4695,1091,2476,-2631,5052,308836,-7077,-155,-331
4695,1098,5106,1457,6490,275232,-16494,-1223,348
4695,-429,-2337,-19189,-5589,369394,4294,1137,-1207
4695,444,-2105,-17454,-3595,349211,2607,844,-994
4695,335,-752,-20780,-1426,401289,3020,983,-1324
4695,-898,-849,-19037,-1206,380659,2537,861,-1022
4695,396,-263,-14553,678,358181,-34,605,-840
4695,153,-945,-21395,-1586,374408,4056,975,-1293
4744,1421,1921,-20642,1595,344553,-5484,141,-1963
4744,1213,-552,-21664,-4376,340847,4191,1542,-2370
4744,-1276,-93,-26026,-2766,352687,4948,1850,-1791
4744,-430,819,-32374,-2523,334427,3024,1120,-1651
4744,-1737,437,-27172,1730,356534,-8833,-795,521
4744,-1549,3199,-20039,6819,318106,-20034,-2298,1575
4744,1614,-1341,-42173,-1243,401223,3799,647,-1445
4744,552,-741,-40746,1219,379860,3591,1098,-1531
4744,477,256,-37614,2691,356086,764,875,-1833
4744,-1432,-1838,-55076,5904,390610,1421,355,-474
4793,1690,4175,-54714,3149,353335,-12897,-1213,-104
4793,1507,2258,-57028,749,340180,-8109,-752,-492
4793,1027,-3551,-67951,1790,390020,6221,989,-998
4793,1381,-2595,-67534,1242,368316,5550,1062,-1020
4793,1122,-1918,-93629,600,411909,3725,1273,-1183
4793,1163,-1380,-87934,2106,388888,2505,1142,-1170
4793,168,2580,-101065,4774,393183,-9491,-651,-1251
4793,-26,242,-98310,498,390748,1288,497,-1894
4793,-1050,-989,-103777,-211,436193,3300,1116,-833
4793,361,-177,-98748,-1700,412717,3559,1260,-942
4842,1359,3640,-90116,5002,377954,-10127,-517,21
4842,2102,3328,-93769,3444,395584,-11843,-1180,-642
4842,1777,2752,-90246,1901,377408,-8367,-885,-731
4842,140,3103,-85369,2060,352615,-9204,-926,-649
4842,1564,-2853,-101811,-474,394674,6476,760,-314
4842,1821,-1893,-96328,568,370926,4606,452,-239
4842,-749,-2648,-110493,-2272,408854,4397,780,-1724
4842,1036,-1814,-105873,-1155,388044,4104,1026,-2600
4842,727,1551,-107255,1068,394376,-7267,-664,-1515
4842,1906,1607,-99172,1591,370989,-7615,-1113,-1136
4891,1830,2873,-121618,849,385431,-4437,-42,-760
4891,-331,-945,-114498,-1631,390848,5409,887,-1051
4891,-213,-970,-114468,-2579,429144,3950,511,-481
4891,1075,-909,-107968,-2366,405910,3351,574,-519
4891,424,1473,-100600,5679,417439,-9222,-1083,-72
4891,578,2553,-99868,6077,393118,-9159,-1013,-89
4891,-656,-2269,-103830,-3434,4742023,6156,1049,-782
4891,-1640,-1800,-96133,-3680,4534692,5124,857,-575
4891,1152,-1095,-100961,-1766,5095393,4605,1089,-694
4891,497,-1326,-92865,-1513,4814855,4033,789,111
4940,-275,2986,-83270,5985,2653393,-12840,-1407,23
4940,-252,1681,-80149,4054,2674254,-8186,-860,-1030
4940,651,-3721,-87923,-4352,3994263,10537,1528,-1366
4940,1527,-3516,-80647,-3665,3716138,8120,1198,-939
4940,-1539,-2159,-86495,-4235,2479420,3277,653,-86
4940,-153,-1590,-81923,-1790,2115661,1482,223,245
4940,-249,-423,-76907,10894,-3252384,-10517,-917,-56
4940,-797,-611,-74182,8595,-3159076,-10230,-1372,282
4940,-977,1120,-75785,2557,-3246545,-10873,-1592,434
4940,-2988,-2375,-97137,-4907,-3939801,6080,1394,-569
4989,1209,352,-86313,10892,-5124947,-7229,-977,33
4989,-102,-2274,-83897,985,-4263073,3142,568,-1025
4989,856,-4198,-86516,-3492,-5072045,3688,636,-620
4989,-423,-3558,-78720,-6845,-4832114,3463,631,-94
4989,1365,-3939,-99313,-5114,-4716709,8901,1559,-2883
4989,1710,-3457,-94392,-4013,-4563947,7036,1484,-3085
4989,-2601,-1608,-93835,-1145,-4996458,3467,1139,-870
4989,-4509,-1483,-88320,-1591,-4693487,2896,833,-7
4989,-3601,-937,-82973,-422,-4450536,254,193,719
4989,1790,409,-67877,1677,-4461128,-7901,-842,509
5037,1747,-517,-80725,-110,-3985617,-614,-58,166
5037,2155,-2402,-77680,-2557,-3459576,7813,902,-1248
5037,-2660,-1350,-76374,-3603,-2967844,2372,-671,-2577
5037,-3480,-1351,-71711,-2550,-2762688,1115,-674,-1853
5037,1781,-1117,-71370,-2000,-2043455,893,697,-1191
5037,2797,-1074,-66637,-2951,-1920646,1776,966,-1221
5037,1517,-2194,-69510,3619,-1779975,5672,-2593,-1309
5037,-147,-2599,-64640,3211,-1690412,3683,-1341,-1024
5037,303,-2208,-59796,1829,-1617906,1479,45,-960
5037,-147,-1642,-60693,1283,-1277422,1286,996,-1876
5086,468,2929,-57064,4366,-1304677,-12281,-1081,1041
5086,840,-2065,-54362,-948,-1087417,1173,541,282
5086,2251,2584,-50197,4085,-1068915,-12321,-1327,-1187
5086,2732,3470,-43919,5858,-1045744,-15791,-1533,-1276
5086,1429,-2054,-52736,-8313,-698897,4898,170,-1427
5086,577,-1691,-52734,-7401,-666107,3932,-273,-155
5086,783,-970,-52457,-3063,-574128,4219,417,-909
5086,507,-1060,-49403,-2600,-544224,2816,6,-1058
5086,-746,-803,-45058,-1219,-525228,245,-393,-959
5086,2868,-928,-47415,-653,-368758,4892,35,-3415
5135,-318,-485,-39341,1351,-365052,-2061,-1433,-2
5135,57,-2533,-37936,-416,-299693,4594,-703,990
5135,-40,-556,-43144,1325,-256793,2191,-891,1151
5135,1930,129,-40040,1992,-260629,-110,-825,856
5135,-5275,3429,-30704,4995,-182335,-18852,-2576,1489
5135,-5186,1126,-30909,3291,-132936,-8865,-580,1595
5135,-838,-1999,-36665,7437,-4149,3380,-724,-978
5135,-2703,-1928,-34198,7673,4826,2841,-871,-592
5135,-2344,-1695,-31162,4496,10202,1817,-917,-263
5135,1184,-1745,-31434,-1679,114591,3866,-506,-920
5183,2656,4094,-32651,2551,69693,-12304,-2258,-478
5183,1846,2550,-31655,1509,80843,-8492,-1632,-1218
5183,426,-2715,-34002,-2535,148218,7475,-208,-762
5183,-379,-2710,-32627,-2588,137811,6526,38,-565
5183,-317,-1371,-34335,-766,133776,3591,-1169,-190
5183,-267,-965,-31872,-575,122273,2191,-1367,-51
5183,1072,2239,-29166,2157,106631,-7775,-3846,-364
5183,1066,1218,-28124,1001,112633,-4262,-3388,-486
5183,-455,-1547,-28977,-2003,133403,5292,-2143,-1119
5183,-1258,-842,-29155,-1470,145747,2206,-1273,-64
5231,1666,1959,-24983,2396,121602,-8636,-4991,204
5231,-652,-1341,-27332,1072,203146,3080,-3722,-2223
5231,447,-311,-24456,3142,186277,-2011,-4105,-1720
5231,51,2857,-20690,5614,153295,-12801,-5209,-248
5231,-1314,-2599,-26467,-518,245128,6265,-4565,-292
5231,-569,-1992,-25103,-1069,231408,5864,-3701,-135
5231,-319,-1799,-24908,-792,247272,3513,-3396,-196
5231,629,-1608,-23407,181,230757,2283,-3395,26
5231,-574,1412,-30726,-2399,222445,-4468,-4372,705
5231,-456,1254,-29208,-4072,209991,-3267,-3916,787
5280,1560,-1586,-30490,-1902,220766,5860,-3229,292
5280,1449,-1059,-30946,-1529,202683,5573,-3039,136
5280,-125,-2373,-30937,-1375,202790,3313,-4545,1494
5280,-1023,-2042,-28137,521,191775,1380,-4666,1481
5280,1237,3106,-27383,4172,160579,-12683,-7377,2710
5280,397,2187,-26011,3201,155346,-10446,-6887,2548
5280,-2,-2131,-30589,-2196,175587,7454,-4773,1204
5280,265,-1806,-27596,-1636,166001,6446,-4805,1115
5280,838,-826,-24756,-662,153474,3573,-5029,958
5280,2980,-429,-26826,-1101,162692,3328,-5927,2273
5339,-820,1386,-22412,4211,139529,-11348,-6864,4287
5339,-731,2537,-20262,4544,132494,-12641,-6731,3669
5339,2251,-3766,-24668,-1652,202314,9774,-6177,1167
5339,1266,-2760,-22803,-891,191072,6822,-6146,1367
5339,249,-1713,-22322,9,243837,4060,-6281,983
5339,-1100,-971,-22439,178,228372,3212,-6005,1086
5339,-4086,3382,-21036,3619,253600,-11293,-8050,3333
5339,-3617,2089,-20060,2534,242991,-8698,-7394,3329
5339,321,-1349,-23355,-2510,318776,6046,-5335,1248
5339,-888,-1207,-21957,-2129,302425,6036,-4744,513
5388,524,2393,-18618,4969,327513,-13461,-7189,1850
5388,-807,1391,-18358,3520,312422,-9319,-6399,1689
5388,-663,893,-17860,2632,296700,-6510,-5757,1488
5388,834,-3266,-18258,-2108,324556,10458,-3339,57
5388,610,-4226,-18336,-2783,307938,14421,-2262,-332
5388,110,-791,-23789,-1618,295555,5340,-3033,452
5388,1317,-902,-19983,-989,282655,4483,-2984,421
5388,1135,-334,-16600,264,268399,1980,-3090,558
5388,534,2673,-12750,3783,261096,-9862,-4857,1901
5388,658,3087,-11466,3848,246888,-10963,-4946,1847
5436,805,923,-12240,887,261366,-1126,-3238,518
5436,2046,2371,-10765,2043,245142,-5435,-3487,664
5436,1681,12,-12406,-986,235555,2747,-2248,45
5436,-791,-1714,-13117,-703,238896,4373,-4681,2133
5436,438,-1996,-12055,-363,225954,3315,-4427,2257
5436,-128,4015,-7643,5228,225581,-14520,-4072,2485
5436,-1476,1758,-8838,2026,217132,-6162,-3138,1900
5436,-1329,-3508,-12002,-3837,212737,11923,-832,674
5436,545,-1071,-10828,-342,211095,5632,-1306,2374
5436,-885,-899,-9791,-464,199407,5310,-1059,2022
5483,730,3382,-6657,4974,188938,-12326,-3016,2552
5483,659,2795,-6628,4238,178987,-10097,-2522,2018
5483,-143,2147,-6825,3325,169411,-7680,-2015,1405
5483,266,-2233,-11249,-2531,168758,8723,-1183,1039
5483,-911,-1518,-10137,-1958,159460,7208,-611,786
5483,-8,-1063,-11358,-357,152322,4987,-718,1780
5483,-1330,-1137,-11444,-303,142049,4401,-759,1749
5483,-602,-251,-4918,1721,142249,-1098,-987,1748
5483,822,-2473,-6938,-1386,135838,8195,279,909
5483,1251,-1313,-7090,-615,124879,5458,126,860
5531,1032,2327,-3130,2690,116862,-7192,-1098,3941
5531,927,1526,-5992,237,106025,-2990,-741,3442
5531,1218,560,-6019,2994,103558,-2968,-750,4109
5531,1584,2767,-3935,4842,94843,-10900,-1750,4289
5531,657,2706,-4119,3068,89608,-9046,-1348,3741
5531,295,-3193,-6980,-667,90216,8051,1041,2875
5531,-622,-2748,-6657,-572,84014,6436,685,3104
5531,-2118,-1212,-6400,-171,77929,3836,29,6346
5531,-1773,-844,-5515,451,73175,2134,-175,5789
5531,-1160,1597,-4716,1455,64072,-3845,-364,4642
5580,1495,880,-4260,1515,61805,-2560,-614,5210
5580,-162,-1084,-5209,-151,59958,3838,426,4056
5580,1233,2393,-2350,3488,52471,-7876,-690,3902
5580,-1795,-1113,-5374,-267,54415,5511,1689,5885
5580,-459,-528,-4922,-248,50648,5177,2532,5629
5580,-1610,3548,-3238,3792,46221,-10916,-1785,7423
5580,-94,2785,-3965,2326,44153,-7639,-1336,6918
5580,-176,-2493,-4609,-1037,54957,7941,1210,6357
5580,-977,-2505,-4280,-460,51049,6090,922,6332
5580,-2364,-2246,-3877,-50,47100,3956,555,6251
5629,-1666,3297,-1765,4139,44842,-10801,-1057,7447
5629,-1273,2576,-1565,3689,42954,-10212,-1131,7165
5629,-778,1659,-2068,2816,41535,-7315,-823,6800
5629,-1037,-2815,-2533,-2391,51827,10897,1292,5924
5629,-902,-2396,-2565,-1478,48393,8995,1091,5314
5629,486,-1362,-5212,-1712,41376,6589,1564,4338
5629,-292,-684,-5160,-1388,38404,5126,1259,4075
5629,960,2742,-1645,4214,35426,-9768,-845,5373
5629,923,2101,-2101,3364,34292,-7352,-835,5130
5629,-406,2458,-1654,3564,32069,-8496,-1015,5006
5678,-2011,726,-3463,868,31800,-857,485,4794
5678,-495,-1520,-4800,-1557,31854,7034,1421,4023
5678,483,-25,-3526,554,28223,1564,819,4026
5678,-1339,-921,-4342,-438,28634,5318,1218,3574
5678,84,-611,-4091,-473,26554,4608,1102,3508
5678,-1121,-2763,-5246,-2824,25879,9813,2242,5671
5678,-720,-1948,-4591,-2012,24125,7844,1972,5066
5678,-1320,-192,-4195,-896,22142,4516,1205,4324
5678,-727,-582,-3715,-610,21100,4050,1076,3792
5678,1398,-12,-3029,112,19347,1720,946,3200
5726,-944,3173,-3008,3399,14768,-8157,-706,5623
5726,29,3610,-2631,4299,12813,-9998,-783,5272
5726,-1185,2619,-2687,2021,12882,-6027,-218,4940
5726,569,-553,-4648,-917,18620,5042,1477,4610
5726,-222,-184,-4262,-116,17578,3942,1493,4013
5726,819,756,-3873,-280,20796,3761,1447,4943
5726,-709,364,-3118,325,20528,1998,1185,4766
5726,337,-1535,-4768,-2896,22509,11594,2351,4655
5726,434,-676,-4245,-2090,20463,9146,2136,4300
5726,183,283,-3403,-834,18533,5497,1622,4196
5775,49,1594,-2364,-440,18949,2558,1185,6224
5775,389,1321,-2503,-343,17812,3513,1327,5538
5775,618,4925,-86,4130,14012,-8959,-221,5530
5775,474,7039,2308,7192,13059,-17936,-1256,4701
5775,-258,7443,2463,7147,11956,-19426,-1365,3661
5775,-1606,716,-3825,-1000,15170,6928,2155,5525
5775,-2221,632,-3374,-918,14067,5596,1639,6081
5775,1595,1032,-2915,-541,14560,4875,1422,1736
5775,1564,1175,-2814,-361,13440,4353,1500,1509
5775,-23,1638,-2233,457,12256,2057,1206,1875
5824,51,4402,-318,3683,11767,-7955,-74,3255
5824,-1987,103,-2579,-777,14190,4723,1089,2912
5824,-1946,1963,-1186,1608,11841,-1748,289,3523
5824,-761,839,-2865,302,14662,4598,1238,1221
5824,-217,894,-2685,591,12909,3640,1096,814
5824,-1430,6785,1820,7277,9189,-19011,-1488,3569
5824,-734,6493,1343,6153,8679,-18149,-1631,3235
5824,157,-324,-3474,-1344,14848,7513,1659,1471
5824,-131,-686,-3040,-1133,14317,6723,1578,1490
5824,-722,-770,-2174,-324,13412,4104,1193,1676
5873,618,4295,615,4383,11441,-11294,-570,3042
5873,383,3248,-37,2969,11490,-7777,-275,2303
5873,-1071,2302,-578,1924,11246,-4468,321,1224
5873,685,-1697,-3698,-1941,12914,9101,1837,2707
5873,715,-1353,-3438,-1578,12314,8049,1785,1821
5873,-2960,-1383,-2560,-893,12291,6926,1539,2080
5873,-1308,-995,-2402,-664,11317,5895,1350,1735
5873,-2083,-529,-2682,-1067,10784,5308,1223,2049
5873,-534,-1452,-3729,-2259,10104,9375,1922,1466
5873,-1324,-509,-2846,-1293,9105,6389,1605,1414
5922,1315,504,-1843,-222,8742,2039,961,3178
5922,-296,-634,-2675,-134,8180,4686,1203,3400
5922,475,-41,-2175,734,7430,2718,944,3020
5922,-125,2213,-132,2989,5807,-6914,-51,938
5922,-1945,2282,-27,3221,5418,-7482,-182,1396
5922,-1616,-1146,-2293,-1207,5594,4945,1319,2048
5922,-1967,-1083,-1954,-806,6105,4129,1072,2164
5922,-1926,-402,-1221,68,6070,1629,780,2099
5922,-819,-504,-2556,-1007,2688,4389,1445,1046
5922,719,261,-2304,-677,1735,2888,1257,741
5971,823,731,56,960,5818,-1020,863,1213
5971,399,-1695,-1843,-1740,5931,7261,1695,859
5971,-1183,-658,-1062,-96,3985,2793,1081,1218
5971,-1204,-639,-3475,192,1196,3480,1047,1097
5971,445,140,-3637,-170,112,3014,1122,707
5971,-276,2305,1878,3423,4431,-7482,38,1417
5971,-215,2312,1430,3015,4034,-6513,70,1320
5971,-24,2760,1028,3017,2790,-7038,-67,1470
5971,-1091,-567,-3232,-1346,752,6919,2041,168
5971,-1584,-245,-2397,-327,592,4181,1506,1094
6020,-2089,4770,5,4548,-1159,-10505,-651,2067
6020,-851,3254,-693,2982,-841,-6126,-182,2147
6020,-836,3247,-513,3099,-1273,-6698,-230,2178
6020,1996,-1300,-4381,-2865,-406,11018,2516,-1358
6020,2530,-645,-4166,-2609,-670,9563,2538,-1574
6020,-2340,-776,-2922,-1029,-551,5220,1431,1190
6020,-1420,-406,-3005,-889,-549,4397,1077,844
6020,303,315,-2711,112,-644,2506,689,785
6020,233,3387,-477,2753,-1813,-5973,325,292
6020,1196,3214,-573,2739,-1647,-5880,226,526
6068,-1201,849,-3301,337,-3463,622,1066,952
6068,-925,3606,-1431,3139,-4442,-8106,11,892
6068,1351,698,-3797,-882,-2368,3784,1388,-444
6068,365,-1482,-1764,-408,-590,4860,1720,424
6068,-552,-1148,-1719,-288,200,4228,1677,264
6068,-570,-2100,-3166,-2353,928,10317,2405,600
6068,581,-1725,-3186,-1716,652,8597,2089,373
6068,-542,-1436,-2702,-888,340,6277,1914,142
6068,-642,-887,-1447,-905,-6202,3545,1681,-115
6068,521,-763,-1280,-690,-5809,2758,1519,-14
6116,-608,2184,-1528,2678,-4530,-6149,319,568
6116,-942,2356,-995,2751,-4548,-7229,16,713
6116,-677,2488,-557,2941,-4270,-8309,-223,795
6116,3035,-591,-2931,99,-2703,4318,1793,-1702
6116,2543,-321,-2602,392,-2617,3316,1726,-1300
6116,-419,-1160,-1683,28,-1096,3484,1501,1046
6116,-1258,-926,-1630,120,-1112,2943,1413,612
6116,123,-2940,-4429,-3637,-2683,11712,3466,-1760
6116,1189,-2344,-3863,-2548,-2900,9131,3077,-1624
6116,-287,-1457,-3139,-1594,-2997,6528,2682,-1542
6165,-1051,1999,-1663,1703,-3760,-4499,66,-192
6165,462,109,-2879,-241,-3031,2132,866,-595
6165,805,1915,-1344,1995,-4292,-4175,194,-340
6165,420,2987,513,4985,-5941,-13050,-707,-470
6165,638,5203,2028,7243,-6894,-20793,-1604,72
6165,-1005,-1231,-3194,-1344,-2685,4873,1654,-1378
6165,-563,-1191,-2810,-1184,-2657,3734,1345,-1277
6165,768,-469,-2427,-297,-2958,1194,1031,-1224
6165,-1308,-1265,-2331,-587,-3021,3149,1568,-1445
6165,-1142,-568,-2363,-15,-3535,1784,1319,-1322
6213,117,2728,-1547,1784,-7009,-5542,1034,-1668
6213,168,1488,-1334,1324,-5381,-4381,745,-1385
6213,1156,-1550,-2363,-795,-3626,2652,1333,-1332
6213,464,-1343,-2659,-589,-4594,3615,1686,-1744
6213,576,-1393,-2251,-329,-4445,2892,1441,-1395
6213,1259,1003,-984,2115,-4001,-4844,585,-886
6213,1095,4007,1199,5977,-5448,-15615,-748,-146
6213,1479,-1858,-2236,-290,1513,5032,1843,-2392
6213,267,-1496,-2045,-240,274,4505,1754,-2769
6213,519,-755,-1720,514,-2150,1973,1359,-2773
6261,-1624,1860,-1327,2384,-6813,-6197,527,-189
6261,-1089,3943,-96,3931,-7526,-12800,-288,182
6261,417,3519,-111,3341,-6826,-11588,-411,186
6261,-946,-3333,-3795,-2627,-2046,9932,2078,-1619
6261,-958,-2677,-3458,-2276,-2698,8238,1965,-833
6261,-1237,-2237,-3297,-1508,-5345,5203,2032,-1453
6261,-894,-1970,-2993,-1285,-4900,4569,1790,-1273
6261,-1718,881,-757,1031,-7335,-4676,332,-562
6261,-1537,1044,-885,1086,-7396,-4561,431,-690
6261,-617,2160,-581,2195,-7496,-7039,336,-589
6310,469,-2077,-3564,-467,-1289,4486,1892,-1343
6310,-1165,-2158,-3143,-894,-1736,4890,1961,-1340
6310,-902,1151,-531,2964,-4569,-7487,359,-596
6310,-603,-1529,-3195,-1098,-4244,4522,1726,-1624
6310,-505,615,-1468,1501,-5218,-3065,814,-1088
6310,848,-2678,-4570,-2712,-4974,8376,2439,-2187
6310,1116,-2197,-4053,-1833,-4803,6573,2171,-1965
6310,-306,-1120,-4830,-545,-5504,3621,1342,-967
6310,-93,-1426,-4320,-318,-4972,2905,1114,-797
6310,-1131,-1207,-3240,471,-5020,687,903,-807
6359,-2155,826,-711,2540,-4937,-6111,487,-640
6359,-2408,-992,-2079,-164,-3600,606,1010,-861
6359,-1391,-2418,-3087,-1834,-3017,5971,1668,-1293
6359,-461,-1615,-3011,-908,-3858,3732,1791,-1946
6359,-433,-1249,-2617,-506,-3934,2559,1562,-1696
6359,1154,-1074,-2031,-891,-3864,2146,1737,-2756
6359,148,1321,-268,1953,-5550,-6854,694,-1876
6359,-2056,-2620,-4813,-3069,-7078,6785,2277,-1399
6359,-1969,-2468,-4327,-2667,-6142,6028,2099,-1362
6359,-1311,-1938,-3443,-1966,-5347,4439,1853,-1370
6408,1643,3305,249,4939,-5734,-14095,-477,-388
6408,1372,2361,-638,3181,-5667,-10277,-221,-359
6408,998,1760,-1459,1866,-6658,-7535,116,-283
6408,1173,-3605,-3734,-3915,-1919,10338,2197,-2078
6408,117,-4122,-4153,-4164,-1861,12915,2736,-3060
6408,1056,-2109,-2804,-1094,-3101,4114,2061,-2538
6408,-124,-1652,-2496,-492,-2710,3164,1845,-2172
6408,790,-1497,-3606,428,-6954,508,1383,-1698
6408,804,1951,-1510,3711,-8098,-9833,103,-1002
6408,434,3267,-877,4002,-7697,-12590,-445,-719
6458,-459,860,-1380,1693,-3996,-4705,774,-2018
6458,-500,773,-1333,987,-2876,-3662,664,-1867
6458,-324,-1540,-2655,-1566,-1416,4480,1601,-2088
6458,-844,-1496,-3088,-1138,-2383,3869,1624,-1876
6458,-547,-1299,-2858,-933,-2357,3311,1554,-1633
6458,631,-2770,-4285,-3523,-2234,9764,2316,-2801
6458,1560,-2310,-3782,-2953,-3140,8120,2160,-2450
6458,1062,-1700,-2974,-2225,-3322,6008,1918,-2083
6458,44,-1598,-1750,-715,-2556,2660,1414,-1705
6458,-597,-1388,-1531,-586,-2619,2229,1341,-1446
6505,-219,2870,349,4004,-3290,-12015,-444,-1032
6505,-341,1806,-225,2772,-2586,-8583,-134,-1071
6505,790,1364,-233,2554,-2467,-7447,-46,-1045
6505,-331,-1305,-3241,-1092,-2252,4480,1692,-2365
6505,517,-1329,-2745,-769,-2187,3386,1469,-2080
6505,36,-2232,-2678,-463,-1436,2620,1316,-2999
6505,97,-1664,-2604,-561,-2525,2385,1239,-2423
6505,310,-3699,-4799,-3901,-3363,10190,2540,-2671
6505,-966,-2779,-4047,-2765,-2661,7884,2217,-2373
6505,38,-1505,-2925,-1114,-1324,4143,1661,-2074
6554,3037,1376,-1712,2261,-3518,-6467,557,-2513
6554,1897,-1136,-3289,-667,-2818,2223,1313,-2340
6554,1500,25,-2505,818,-3955,-1591,840,-1903
6554,940,1274,-921,2631,-2869,-7282,74,-2128
6554,671,1461,-437,3192,-2972,-8862,-180,-2096
6554,952,-1763,-1959,-884,-735,4248,1742,-2194
6554,603,-1517,-1444,-480,181,3768,1589,-2071
6554,-1250,-509,-3572,-826,-4218,2866,1785,-1649
6554,-580,-354,-3261,-473,-3905,2153,1621,-1500
6554,871,162,-2704,267,-3923,-414,1191,-1139
6603,-405,1613,-523,2684,-3581,-7809,494,-775
6603,-139,-1205,-2523,-814,-2172,2437,1406,-1300
6603,773,-1530,-2499,-885,-2252,3368,1496,-1268
6603,-1494,-1473,-2318,-1156,-2842,3487,1586,-1011
6603,-235,-1218,-2178,-1014,-3137,2809,1518,-866
6603,-760,1091,-933,2097,-4240,-7150,-107,1768
6603,-2103,2092,-77,3894,-4644,-11007,-546,1861
6603,-585,5510,2294,7636,-5785,-22999,-2004,1989
6603,2293,-652,-3654,-1491,-2272,5967,2041,-2878
6603,1269,-714,-3303,-1538,-2188,5375,2065,-2921
6652,-775,3317,-212,4352,-4378,-11389,-205,-1199
6652,-514,1717,-776,2250,-3621,-6877,270,-1198
6652,763,1092,-701,1306,-3434,-5522,425,-1244
6652,356,-1895,-3719,-2738,-3915,8141,1974,-697
6652,527,-1551,-3351,-2413,-3591,7144,1770,-479
6652,958,-1504,-3324,-2196,-2843,5803,2296,-2808
6652,921,-1211,-2886,-1743,-2792,4890,2102,-2632
6652,-385,-669,-2272,-745,-2845,2341,1747,-2159
6652,-780,664,-676,1797,-2173,-5536,-9,-507
6652,200,-1658,-2366,-1250,-475,3227,898,-1006
6700,700,1781,716,3166,-297,-7429,187,-1215
6700,-612,882,-21,1134,347,-3451,529,-1283
6700,-955,-1170,-1760,-1434,-112,3363,1382,-1418
6700,-466,-1531,-2491,-1354,-3468,3623,1264,-1244
6700,814,-743,-2161,-802,-4695,1618,1110,-1329
6700,558,-1732,-3953,-2585,-3815,6796,1884,-1050
6700,-688,-1261,-3821,-2054,-3933,5357,1622,-857
6700,-526,-490,-3421,-1052,-3926,2610,1175,-585
6700,-265,-1276,-1380,-1168,-143,4212,1860,-1604
6700,1040,-846,-898,-793,-524,3013,1616,-1793
6748,933,584,-1328,1925,-3265,-5052,435,64
6748,-300,76,-1498,909,-1772,-2885,472,139
6748,589,-1733,-2308,-832,-369,3434,1107,164
6748,-1738,-1071,-3140,-2120,-3586,3878,1524,-736
6748,-1773,-789,-2717,-1799,-3103,2809,1272,-597
6748,135,-605,-2657,-445,-847,2655,1277,-260
6748,-1089,-409,-2496,-263,-543,2352,1071,-116
6748,174,-1974,-3674,-1657,-3503,6030,1637,-1269
6748,-1172,-1613,-4074,-1062,-5561,4874,1503,-1288
6748,-1318,-701,-3202,-206,-4813,2332,1149,-1145
6797,962,-777,-3368,-1071,-3053,2839,1250,-885
6797,-131,-478,-2680,-299,-2941,1427,1040,-620
6797,-178,3297,15,4123,-4030,-11856,-545,261
6797,605,2716,1397,5161,-3208,-15962,-1727,611
6797,-808,-1802,-1647,-161,-1028,-95,-129,-185
6797,868,-1438,-3701,-1602,-2771,5438,1491,-1407
6797,331,-1321,-3559,-1679,-2863,5236,1567,-1162
6797,214,-1078,-2793,-1216,-591,3151,1119,-457
6797,-1130,-727,-2638,-680,-1160,2273,954,-522
6797,-762,1754,-1287,2238,-2500,-5751,54,-295
6846,-519,3013,-463,2977,-3125,-9323,60,-657
6846,964,454,-2077,-513,-1780,-235,936,-1124
6846,-208,1200,-1275,1532,-2198,-3768,682,-828
6846,-1233,-1355,-2537,-543,-1333,3941,918,-636
6846,-674,-1128,-2598,-953,-1871,3430,1017,-1072
6846,-540,-2988,-3394,-3102,-94,9239,1897,-1670
6846,-139,-2986,-3589,-2630,223,9581,2046,-1601
6846,1075,-2031,-3125,-1421,-297,6576,1657,-1354
6846,-1464,-763,-2563,191,-1809,2340,989,-1161
6846,-1235,-1025,-2359,-68,-2033,1849,920,-1169
6894,1283,2996,309,3051,-4925,-9709,-372,-1091
6894,-78,2474,421,2100,-3721,-8027,-138,-1094
6894,896,2244,417,1740,-3264,-6885,135,-1091
6894,-1040,-2465,-2434,-1386,-2307,6059,1398,-956
6894,-2173,-2290,-1983,-931,-2184,4980,1021,-312
6894,1077,-1050,-2426,-1409,-3953,4101,1631,-1730
6894,1700,-656,-2066,-648,-3408,2615,1140,-925
6894,326,-1814,-2036,-1803,-4294,6250,1662,-1072
6894,-1134,-1546,-1571,-1466,-4450,5062,1466,-464
6894,-295,-700,-630,-437,-4047,2094,996,391
6943,-922,1483,753,3574,-2799,-7659,-201,-1391
6943,-1312,-1155,-937,1158,-2493,866,633,-1519
6943,-1064,-328,-235,1419,-3178,-1314,605,-1130
6943,1216,2018,-236,2050,-4242,-7100,170,-824
6943,971,1746,-233,1927,-3171,-6426,270,-635
6943,1115,-932,-2781,-148,-848,3822,1138,-907
6943,1243,-876,-2291,-394,-1260,3169,1165,-904
6943,-740,-664,-3205,-1336,-4179,3199,1418,-1263
6943,473,-423,-2838,-917,-3466,2569,1260,-1131
6943,440,255,-2198,-60,-2928,591,928,-879
6992,-727,-582,-1420,-767,-2356,1962,1095,-841
6992,770,-930,-1445,-1129,-2287,3876,1389,-699
6992,813,2565,1091,2882,-3761,-7796,82,-71
6992,1394,-333,-2341,-1413,-2876,3003,1755,-1116
6992,1186,-213,-2223,-1722,-3016,2585,1673,-875
6992,-353,1980,-874,1791,-4192,-7022,-232,509
6992,-1447,1733,-646,1923,-4284,-7040,-443,539
6992,-474,-778,-4130,-1752,-4160,4572,1812,-984
6992,-505,-442,-3512,-1245,-3185,3851,1604,-910
6992,-1850,-1563,-2431,-703,-1650,3022,1434,-809
7041,25,3267,632,3749,-4554,-13623,-451,-63
7041,730,2169,105,2272,-3848,-9960,-142,-143
7041,-425,-2650,-4443,-2625,-2792,8245,2105,69
7041,-586,-2223,-4040,-2284,-2976,7197,1974,-401
7041,-1586,-1297,-3355,-1395,-3176,4409,1688,-866
7041,1938,-807,-2213,-1468,614,3712,2080,-2555
7041,485,-757,-1777,-639,555,2216,1517,-1912
7041,-431,1808,-466,2009,-3824,-7389,220,-595
7041,809,1598,-519,1854,-3315,-6386,353,-668
7041,-516,-619,-826,-288,-1330,3313,1500,-1196
7090,268,1372,992,2815,-2007,-7429,105,-607
7090,-1152,-2128,76,-571,-988,3029,1366,-1119
7090,263,1644,2670,2987,-2445,-9112,-56,-319
7090,1553,-440,-3584,-1076,-3152,3298,1196,-437
7090,75,1764,-2144,1407,-4290,-4151,336,-101
7090,1064,-2576,-3368,-3207,-2216,8257,2336,-787
7090,337,-2226,-3162,-2570,-2014,7132,2170,-296
7090,-632,-516,-3234,-1586,-2708,3528,1309,-1269
7090,795,-624,-2692,-858,-2428,2561,1163,-1217
7090,-534,-394,-2042,-41,-2472,330,959,-1096
7139,-962,1477,-750,2282,-5095,-7190,145,-769
7139,-793,-58,-2233,-615,-4293,-561,880,-1805
7139,14,-1354,-3266,-2428,-3824,5043,1690,-2556
7139,-1546,-1347,-3775,-917,-3863,3016,1369,-753
7139,-1302,-1095,-3291,-616,-3586,2399,1249,-721
7139,220,-2383,-1351,179,-1786,536,1247,-1180
7139,-662,535,580,4055,-1952,-8966,184,-478
7139,-1371,-1408,-2263,-414,-695,4884,1434,4
7139,-1207,-1372,-2134,-257,-966,4138,1353,228
7139,-986,-548,-1881,206,-2179,1631,977,358
7188,1824,4317,1106,4639,-3468,-14539,-637,733
7188,413,3050,854,3228,-2835,-10894,-416,759
7188,167,2148,731,2411,-2802,-8247,-171,585
7188,-21,927,-701,1932,-2526,-6028,-15,249
7188,-1092,3046,441,3919,-3332,-12748,-837,602
7188,2292,-1398,-4497,-3026,-5477,7430,2122,-2347
7188,982,-1385,-4066,-2579,-5325,6218,1876,-1780
7188,-758,-801,-3139,-1053,-957,3425,1509,-939
7188,-380,1968,-790,2559,-1773,-7022,121,8
7188,251,2831,323,3422,-1360,-10341,-450,393
7237,-1115,-1149,-3249,-1474,-1850,4180,1210,-1202
7237,-855,-2066,-3547,-2175,-1233,7229,1616,-1233
7237,596,-1349,-2753,-1087,-1258,4732,1426,-1064
7237,-1817,-2630,-2881,-2690,-3606,5042,1188,-77
7237,-1315,-2334,-2625,-2059,-3354,4214,1037,-23
7237,-746,-3935,-4586,-4876,-1737,12454,2370,-532
7237,-267,-2914,-3712,-3994,-2213,9248,2032,-376
7237,655,-1876,-2365,-985,-2625,3750,1488,-161
7237,252,-1684,-2004,-936,-2869,3341,1393,-222
7237,-980,-1018,-1215,-240,-3074,926,1089,-38
7284,1735,3412,-32,3863,-4433,-12045,-450,-81
7284,1299,2182,-514,2584,-4224,-8806,-193,23
7284,-476,-1858,-2582,-1992,-2782,6320,2067,-521
7284,983,-1431,-2191,-1524,-2003,4972,1763,-453
7284,1105,-448,-1857,-48,-2508,1527,1127,-276
7284,1153,-445,-2342,-1487,-2671,3238,1983,-1240
7284,998,-119,-2202,-1448,-2825,2507,1954,-1267
7284,-1561,-2591,-2991,-2697,-2853,7075,1945,-722
7284,-848,-2043,-2493,-2161,-2166,5600,1747,-789
7284,600,-11,-2954,-1001,-2609,2069,1418,-501
7332,-349,1995,-363,3226,-2413,-9338,-45,314
7332,-1505,-733,-2060,-175,-612,772,959,-149
7332,-828,2441,-602,2194,-4851,-9848,-60,391
7332,57,1953,-424,1726,-4051,-8275,-37,683
7332,-283,2353,-42,2376,-3696,-9432,-373,1064
7332,568,-2150,-3449,-2180,-3261,6558,1857,10
7332,862,-1711,-3303,-1897,-3030,5588,1666,-158
7332,-1012,-912,-1584,-702,-919,3093,1237,-639
7332,-1029,-437,-1096,-128,-990,1671,1173,-679
7332,-1356,-2603,-3261,-2540,-1855,7833,1824,-191
7381,70,1787,270,2697,-2562,-8897,-325,190
7381,-1419,-684,-1312,-444,-393,411,643,-431
7381,-569,-631,-3111,-1584,-4706,3807,1405,-615
7381,153,-676,-2721,-1160,-4110,3011,1259,-277
7381,-961,-118,-2107,-44,-3755,512,902,140
7381,-1614,2489,-311,2266,-4721,-8466,-182,47
7381,-1341,2248,-197,2422,-4173,-8416,-156,332
7381,-1434,-1822,-3481,-2109,-2776,6136,1782,-1400
7381,-1025,-1158,-2942,-1615,-2665,4490,1539,-1463
7381,356,-1472,-2808,-648,-3190,2140,831,-1098
7430,156,4398,182,4126,-320,-13074,-645,-48
7430,-97,3313,-478,2710,-784,-9068,-339,-172
7430,-1760,-2874,-4978,-3042,-2840,8805,1754,-922
7430,-735,-2689,-4050,-2319,-2642,7560,1438,-592
7430,-628,-2141,-3342,-1676,-2648,5852,1265,-569
7430,1537,-1140,-2320,-1854,-1745,4107,1391,-1274
7430,1411,-893,-1997,-1478,-1793,2980,1240,-1401
7430,249,1901,-13,1704,-3007,-8045,-504,878
7430,-424,1127,368,1818,-2393,-7804,-669,1071
7430,1033,-1792,-2742,-565,-122,4701,1184,-1720
7478,258,1286,-231,712,-4477,-4366,387,-896
7478,255,1840,311,1459,-4199,-6542,-8,-785
7478,1910,-1095,-2768,-1628,-1689,4263,1229,-2137
7478,-36,-1122,-2445,-1439,-1407,3962,1242,-2038
7478,-455,-810,-1926,-899,-1303,2583,1066,-1836
7478,-297,-3339,-3303,-2628,-1143,8383,1212,-222
7478,-1172,-2503,-2482,-1304,-1364,4996,770,-159
7478,1759,-1306,-2470,-1163,465,3804,1341,-2095
7478,1540,-1665,-1944,-479,639,2959,1259,-2537
7478,-308,2729,513,3549,-2003,-11148,-774,-519
7526,-2090,139,330,2528,-1155,-7457,-582,-94
7526,-1721,372,-162,1731,-1268,-5692,-370,-219
7526,-310,-1475,-2599,-2488,-1828,4402,1363,-1434
7526,815,-1067,-2310,-1912,-1156,4010,1355,-1279
7526,-500,-508,-2815,-772,-12,3134,1227,246
7526,418,-545,-2720,-693,-421,2753,1119,427
7526,-1255,-373,-2213,-469,-575,1409,813,657
7526,956,-3872,-3304,-3375,2606,11393,2162,-2478
7526,1530,-3009,-2927,-2660,1385,9347,2305,-3049
7526,876,-169,-2009,-814,29,2524,1108,-2451
7575,369,117,-1816,-279,-246,360,426,-2141
7575,236,-1079,-1938,-530,26,2292,692,-2126
7575,1405,2374,-6,2876,-3197,-8984,-697,-346
7575,975,5514,2100,6633,-4445,-20359,-2001,637
7575,609,5989,2602,6750,-4050,-21992,-2331,950
7575,209,-1890,-2295,-1883,1424,5795,1095,-691
7575,165,-1719,-1967,-1535,1709,5000,882,-412
7575,671,-960,-2316,-1522,38,4018,1050,-907
7575,346,-596,-1855,-938,463,2554,849,-904
7575,-703,-1668,-3225,-1591,-295,5330,1264,-1354
7623,-223,-1253,-2309,172,440,327,624,-941
7623,-1199,1309,-514,3307,-598,-9171,-596,-373
7623,-1481,-2592,-639,-922,5232,4096,1162,-868
7623,-480,-2825,-800,-1079,3734,3588,1076,-929
7623,-375,1043,-455,2381,-15,-6957,-422,-1354
7623,1064,183,-322,2102,406,-5881,-424,-1272
7623,-95,1026,844,3533,-47,-10244,-950,-862
7623,-972,-1700,-2188,-1069,1716,5937,1425,-1890
7623,-661,-1705,-1720,-958,3454,5228,1294,-1568
7623,-1059,-1696,-2093,-2698,-1328,4954,1403,-519
7672,601,3942,532,3767,-1423,-12269,-878,-139
7672,-563,2571,-105,2112,-640,-7422,-372,-409
7672,-174,-2452,-2667,-2566,548,7486,1842,-1743
7672,-1166,-2061,-2199,-1941,567,5745,1531,-1506
7672,791,-673,-2861,-2537,211,5098,1378,-2028
7672,-352,-368,-2697,-2147,19,4672,1280,-2048
7672,-747,1162,-29,1772,0,-6432,-553,-473
7672,-940,842,-117,1836,357,-5729,-599,-323
7672,-761,1237,323,1998,189,-6875,-730,-67
7672,-436,-1479,-3180,-2017,-1366,5094,1253,-1266
7768,-319,-1088,-815,-1130,2430,3103,852,-1318
7768,1265,-657,-2541,-1552,1543,4378,1235,-258
7768,1190,-611,-2372,-1725,-369,3958,1036,-256
7768,-467,-366,-1796,-1340,-2650,1870,677,-412
7768,-974,-1231,-2623,-1759,-2561,3157,813,-823
7768,72,-991,-1982,-1131,-1846,2247,776,-626
7768,852,-1888,-2119,-1946,337,5279,1419,-1279
7768,-330,-1223,-1789,-1461,343,3596,1016,-1094
7768,1631,-155,-2752,-1422,736,3296,1093,-2494
7768,3021,-158,-2408,-1224,569,2452,855,-2241
7817,-292,-380,-1613,-1355,-1829,1847,777,-531
7817,-874,-501,-1455,-1073,-1552,2089,547,681
7817,-1147,1859,34,1728,-1428,-9136,-954,36
7817,561,3665,1475,4385,-1988,-16173,-1738,421
7817,312,-763,-2603,-1340,886,5178,1443,-2845
7817,1913,-599,-2515,-1742,487,4645,1433,-2855
7817,-1226,-672,-2733,-944,2092,3647,1099,-1111
7817,-673,-372,-2529,-654,1733,2799,970,-1388
7817,-1135,-2294,-1270,-762,706,3986,1043,-1419
7817,478,-1789,-1434,-568,-432,3412,896,-1344
7866,395,2154,1284,2785,868,-8964,-452,-634
7866,-1254,296,-281,23,1061,-1925,148,-979
7866,546,-434,-1901,-384,1523,2972,690,-1738
7866,-169,-36,-1665,-150,960,1491,418,-1653
7866,1088,2717,791,3336,-1223,-12385,-1454,9
7866,229,3421,1090,4754,-2142,-15386,-1844,154
7866,140,-1373,-1951,-1147,3419,5418,1144,-1369
7866,-1090,-1396,-1604,-1008,3463,4944,1130,-1668
7866,162,-1151,-1206,-445,3483,3465,815,-1520
7866,430,-618,-1852,-289,596,3079,910,-678
7914,-1210,2134,1330,3612,2601,-8910,-781,-109
7914,-729,-1186,-3665,-1438,580,5513,1181,-662
7914,-442,-998,-3028,-1232,435,4751,1170,-695
7914,326,-310,-2045,-419,155,2178,919,-742
7914,-2148,-968,-2080,-1179,702,3783,1272,635
7914,-794,-513,-1754,-785,740,2770,1243,-393
7914,180,-2788,-2620,-1718,1594,7204,1345,34
7914,-1016,-2325,-2413,-1722,795,5991,1416,47
7914,-508,372,-1280,-127,1578,1735,734,555
7914,918,852,-1508,-182,1487,883,583,619
7963,433,2011,-60,2304,-1723,-8319,-241,-890
7963,-986,-870,-1823,-1149,-22,1835,682,-1102
7963,-385,1753,306,2206,405,-7428,-210,36
7963,914,1638,282,2143,136,-6789,-175,51
7963,-1547,-2484,-2759,-1734,-48,4394,1066,29
7963,-647,-2105,-2447,-996,-79,2850,816,288
7963,-1208,-1259,-2037,-803,714,3260,1365,-816
7963,-814,-1088,-1758,-468,873,2523,1100,-752
7963,429,-553,-1195,382,665,55,698,-653
7963,1091,-1251,-3158,-1694,569,5364,1190,-387
8059,-127,353,-840,104,1236,-77,636,110
8059,722,-3597,-2700,-2888,2962,9306,1533,-569
8059,-718,-3361,-2221,-2197,2503,8124,1586,-340
8059,499,-2225,-1577,-1005,1980,4536,1135,-3
8059,-22,-1016,-1314,44,2807,1352,742,1
8059,-1461,-1071,-935,447,2931,440,566,27
8059,1295,3943,791,4785,-192,-13453,-782,756
8059,158,3532,982,4228,42,-12189,-636,672
8059,-1504,-1223,-1067,-648,1509,2073,1093,-598
8059,-1561,-1078,-714,-89,2194,1397,768,-363
8108,1115,2297,-657,3647,-1187,-10549,-486,-322
8108,-166,-1870,-2647,-1160,-95,2373,940,-519
8108,-1123,-1719,-2262,-1521,-78,2667,1210,-777
8108,-304,-528,-1828,-656,-267,461,1074,-956
8108,666,2449,47,2624,948,-7562,-584,-204
8108,655,-2447,-3006,-2794,2449,9649,1567,-1217
8108,-912,-701,-2329,-788,1200,2355,214,-798
8108,-567,-119,-2081,-365,-32,1050,36,-848
8108,-690,3435,1033,3380,-276,-12420,-755,-335
8108,-441,2577,353,2349,310,-8948,-387,-566
8156,-816,1461,133,2344,3925,-5891,-370,-230
8156,-778,396,-2418,-1460,1494,3953,998,-881
8156,190,742,-2087,-1123,1392,3056,858,-739
8156,-536,1402,-1563,-328,978,702,550,-656
8156,517,-1070,-1970,-957,1583,3116,685,23
8156,-1164,-780,-1876,-604,765,1864,504,249
8156,461,-2132,-15,-2585,4060,6719,1050,-1121
8156,-1013,-3176,-1164,-3163,4573,10559,1702,-1199
8156,-1090,-928,-1882,-1009,-1185,2492,762,-404
8156,155,-763,-1248,-466,-198,1270,447,-243
8215,-447,1523,1356,2124,5278,-6239,-449,-657
8215,504,1833,-676,947,-1494,-6064,-253,-745
8215,-1064,1226,-365,1017,-721,-5529,-371,-446
8215,-889,3291,1396,4094,-1113,-13177,-1273,95
8215,-1546,-1052,-2626,-1697,496,4651,979,-807
8215,-873,-974,-2370,-1327,1064,3706,842,-1424
8215,-524,-957,-1935,-707,1717,3079,722,-1390
8215,933,-383,-1491,89,1783,1459,488,-1312
8215,1602,-1330,-1690,-1516,647,5231,1327,-1822
8215,1549,-1130,-1495,-1324,944,4462,1189,-1575
8264,-1330,2123,534,3977,-752,-10679,-1024,-324
8264,-1221,-828,-1192,364,136,-766,-5,-903
8264,546,-1180,-1504,-207,-33,1115,295,-995
8264,556,2305,-492,1429,-976,-5485,-156,-843
8264,-968,1536,-364,1604,-397,-5317,-260,-890
8264,348,-1577,-2025,-340,2105,4584,858,-900
8264,-1101,-1515,-2196,-873,1489,4438,933,-1055
8264,-833,-1172,-2053,-1192,579,3219,793,-1111
8264,1603,-834,-1671,-675,1967,2974,581,-1103
8264,1110,-646,-1587,-657,1742,2545,636,-843
8313,1298,1386,-1261,685,-778,-2981,137,-2379
8313,802,-483,-2469,-1494,-403,3980,838,-2507
8313,490,1085,-1326,932,-1101,-2318,336,-2471
8313,876,-1166,-1448,-478,1384,2107,845,-1528
8313,986,-1179,-1104,-277,1395,1631,953,-1468
8313,1097,2234,286,2325,3009,-6491,91,-1123
8313,-157,2351,395,2037,1040,-6632,215,-1156
8313,89,5840,2420,5544,-2478,-18141,-1095,-292
8313,-376,-1149,-2043,-1374,796,4539,1504,-820
8313,561,-183,-1711,-607,423,2311,1162,-731
8362,-983,3466,1141,3890,-709,-12978,-794,373
8362,508,2555,836,2829,0,-9819,-764,830
8362,405,1561,575,2074,743,-6292,-515,827
8362,1605,-2553,-2571,-3712,659,9557,2230,-3159
8362,-305,-2589,-1951,-2768,1536,7877,1789,-2051
8362,-105,-2022,-1566,-1233,2452,4581,834,-562
8362,-1153,-1737,-1558,-1205,1854,4204,840,-676
8362,26,-996,-1196,-424,1867,2086,619,-714
8362,-2524,1493,795,2569,-390,-7788,-734,38
8362,-2385,4527,2614,6055,-1687,-18449,-2093,823
8410,803,255,-2470,263,-728,33,441,-841
8410,-556,2055,-923,1817,-954,-5960,-299,-562
8410,-254,-611,-2332,-1405,186,3261,879,-1071
8410,-938,-1837,-2192,-1497,785,5310,1136,-1016
8410,-862,254,-767,1143,-15,-2046,279,-566
8410,39,-3036,-2895,-2891,1670,9213,1715,-1569
8410,1532,-2530,-2159,-2659,2918,8545,1752,-1493
8410,1741,-1690,-1488,-1916,3666,6671,1496,-1313
8410,406,-1787,-2046,-1988,1338,4497,748,-585
8410,537,-1850,-1696,-1136,1875,3678,753,-594
8459,-181,1481,-77,2356,-980,-6290,-266,-701
8459,-329,-527,-1308,-64,700,242,207,-923
8459,1254,-1739,-2030,-1333,1583,4863,673,-1034
8459,1527,-982,-2728,-2007,442,4062,1115,-1805
8459,248,-684,-2337,-1392,525,3091,1113,-2203
8459,-1319,-567,-1409,-758,1586,1655,714,7
8459,-891,1657,306,2180,81,-7390,-324,424
8459,602,3421,1554,4036,-711,-13758,-1199,785
8459,-48,-1779,-3211,-2566,174,7255,1529,-1027
8459,869,-1242,-2941,-1946,400,5913,1311,-1003
8508,1905,2323,1052,4135,-1087,-12922,-761,-504
8508,354,1408,489,2885,-764,-9563,-551,-468
8508,-126,945,36,2195,-735,-7466,-423,-474
8508,557,-3891,-4246,-4787,213,13219,1783,-1428
8508,630,-4084,-3947,-4210,731,13327,2076,-1645
8508,-587,-1519,-1542,-1196,2948,4839,1407,-1162
8508,-70,-1415,-1485,-1043,2797,4480,1309,-1119
8508,1486,-984,-1265,-632,2433,3243,1120,-998
8508,186,-1420,-1730,-361,-1216,848,484,-347
8508,636,1830,750,3349,-1046,-9527,-736,-73
8557,-1049,-854,-1209,-1630,-502,2000,641,-710
8557,9,-1462,-1614,-1957,-575,4234,959,-732
8557,-1284,1580,665,1819,-1868,-6502,-94,-27
8557,-906,-728,-2481,-1489,-300,4002,1260,-1104
8557,-529,-350,-2438,-1404,-580,3331,1061,-1091
8557,-1525,-3310,-2757,-3559,-384,9274,1683,-111
8557,-1104,-2644,-2307,-2498,-46,7393,1449,336
8557,205,-1984,-1791,-1419,242,4942,1041,711
8557,450,-768,-1564,-1128,407,2697,1208,-1794
8557,484,-680,-1473,-960,188,2153,1164,-1382
8604,-1154,2623,1717,3323,-1172,-12828,-850,380
8604,577,1894,861,1781,-503,-8902,-443,170
8604,822,2031,991,2146,462,-8809,-580,118
8604,-1072,-1828,-5344,-2533,-4150,6808,1802,-1127
8604,74,-1469,-3739,-1975,-1567,5225,1686,-897
8604,815,-1186,-1609,-896,1681,3305,1226,-520
8604,583,-1184,-1897,-951,1272,3076,1181,-558
8604,57,-1437,-6143,-2144,-2469,5416,1119,-24
8604,-79,-1067,-3754,-1200,-688,3740,997,-86
8604,-120,-317,-2123,-489,448,1614,982,-371
8653,952,3331,5784,3286,8270,-10280,-143,-182
8653,1131,787,2540,-696,6113,-320,756,-577
8653,-608,2077,2838,1121,557,-5992,411,-255
8653,-1661,1132,34,870,-1168,-7499,-207,138
8653,-1182,705,1318,1085,-18,-7087,-221,0
8653,1842,-1342,2624,-1450,905,5159,1404,-1205
8653,649,-910,-862,-1194,358,4313,1175,-1229
8653,958,-414,-720,-1363,589,3072,1027,-423
8653,859,-387,-944,-1189,485,2926,1013,-171
8653,-19,-239,-1316,-518,262,1802,792,138
8702,-690,399,1781,606,3381,-2591,11,129
8702,-632,-1958,246,-1810,2260,4812,902,-302
8702,-426,-302,896,145,-85,-602,460,-151
8702,-677,-630,-6176,-338,2,2803,1147,-1481
8702,859,-568,-3393,42,643,1796,1095,-1832
8702,-732,2508,-583,2546,-2945,-9077,-960,735
8702,308,1814,-1005,2102,-3454,-7902,-840,647
8702,-1032,1500,-1368,2370,-3747,-8685,-943,640
8702,-228,-829,-9696,-1838,1796,5604,1165,-644
8702,-517,-352,-6348,-2293,1120,4624,1037,-629
8798,-1254,-592,-4341,-83,-3619,1616,461,-853
8798,593,-984,-2177,-838,-2586,3945,698,-886
8798,1705,883,733,723,-2668,-1115,178,-713
8798,110,-2239,2865,-711,9357,2983,527,-900
8798,-1016,-1642,1432,-541,9126,2184,395,-834
8798,-441,-2486,8120,-1656,4605,5007,492,-838
8798,471,-2047,6037,-1014,10145,4016,328,-829
8798,260,-87,-6064,-1751,-3466,3189,874,-1143
8798,232,-184,-3585,-1486,-3706,2363,937,-1315
8798,256,495,-259,-983,-3105,254,640,-873
8846,-1164,2653,-681,3183,-316,-8912,-1045,151
8846,-145,2313,-5364,1731,-1191,-5402,-448,-406
8846,-123,-466,-485,-1575,-1093,3432,476,-1206
8846,1254,-602,1070,-1084,601,2829,499,-1153
8846,1340,-22,2436,209,1120,56,119,-946
8846,807,-808,-645,-1231,-2388,1936,308,-960
8846,-236,-632,429,-940,-1248,1234,320,-950
8846,-1001,-3678,-96,-3578,5510,10673,942,-1424
8846,-582,-3253,1668,-1910,6573,8090,820,-1342
8846,-91,-389,-3981,-1381,-1191,1861,399,-1667
8895,-218,2124,5131,2130,-2077,-9759,-1238,-1192
8895,-253,-766,2790,-1243,585,435,-181,-1700
8895,773,-1248,491,-1721,964,2684,123,-1727
8895,284,4602,12788,4986,-3593,-19908,-2300,-1267
8895,666,5705,7690,4997,-9305,-20706,-2547,-1026
8895,1040,-1578,-8939,-3070,-4897,6086,883,-2645
8895,870,-1498,-6913,-2331,-2736,5038,822,-2516
8895,607,-2092,1592,-865,-5108,3440,249,-2407
8895,-79,-1755,1470,-447,-3224,3359,358,-2484
8895,1013,-984,1632,-99,1366,2028,263,-2386
8944,-459,448,-463,-702,-1262,-1052,-453,-2388
8944,-668,-1218,-1809,-2327,-441,4522,214,-2507
8944,-121,896,-842,481,-632,-3172,-591,-2010
8944,-93,545,-2666,-1319,3227,4449,833,-3203
8944,-361,1039,-5205,-1610,2150,3638,621,-2715
8944,-129,5009,9328,7581,13532,-21936,-2918,-948
8944,-46,4926,9047,5978,9113,-19412,-2615,-1123
8944,-193,-2311,5328,-1264,5051,5385,380,-2825
8944,-29,-2125,-316,-810,3877,4885,359,-2743
8944,1340,-1463,-5448,-541,1043,3337,345,-2778
8993,1262,3677,5303,3344,-364,-12041,-1343,-2103
8993,-11,2968,2201,1606,-1257,-8678,-774,-2270
8993,48,2866,-1977,267,-4200,-6016,-331,-2394
8993,2203,-2383,-1247,-2886,1970,8312,748,-2769
8993,618,-2226,-2680,-2244,1374,7108,588,-2596
8993,1703,-2264,6901,-1751,6722,5215,557,-2587
8993,1702,-1412,9649,-885,8274,3631,447,-2506
8993,-656,-1918,3230,-2597,7654,6308,612,-1967
8993,-1189,-2701,2890,-3196,7089,8696,1051,-2046
8993,-577,-1642,3545,-1688,4039,4842,535,-1884
9042,56,473,-10929,-1139,-7156,-175,-110,-1837
9042,1000,-782,-11340,-1953,-6127,3826,394,-1851
9042,-95,1610,-6547,1900,-5888,-5938,-710,-1184
9042,1686,2393,4406,1733,3213,-7616,-887,-1495
9042,1666,2079,5164,1351,6811,-6581,-820,-1314
9042,-589,-3154,4706,-2588,-2721,5121,457,-1573
9042,685,-2142,1784,-1791,-2937,3843,478,-1402
9042,339,-516,-782,-1954,-398,4100,668,-1983
9042,1389,-625,-578,-1582,-533,3335,487,-1721
9042,1512,-103,-711,-801,-1993,1023,259,-1550
9090,1370,2075,4964,2206,-641,-7073,-603,-929
9090,1635,2444,-3163,-1030,-5232,-1499,104,-1488
9090,1401,1757,-10310,-3159,-11187,4281,950,-1821
9090,-1284,-1927,-3990,-3598,-12708,3520,245,-1340
9090,-1086,-1281,-1861,-3198,-13267,2577,161,-1259
9090,482,2388,12867,3278,6537,-10588,-959,-1346
9090,316,1879,12140,2988,4777,-10187,-1301,-958
9090,-143,-1350,-15212,-2233,-2938,6094,597,-1595
9090,1174,-733,-8725,-2259,-4877,5134,560,-1505
9090,-105,-125,-2065,-1088,-3662,2588,288,-1299
9138,91,-624,5498,-1472,-1110,2394,478,-1881
9138,65,2882,10394,4070,-929,-13696,-1633,-668
9138,1803,-1683,3751,-647,527,2017,2,-1880
9138,1749,-4451,-6948,-5116,-10210,13825,1763,-2587
9138,454,318,1176,-2756,-5250,4842,595,-2158
9138,132,199,643,-3094,-5738,4342,418,-1816
9138,1117,-305,2336,-2575,-1521,2796,167,-1337
9138,-705,-1234,12113,557,7802,2153,313,-2140
9138,-705,562,11451,2044,6184,-2783,-65,-1917
9138,-837,-3983,11775,-306,4584,2590,30,-950
9187,-1465,-1245,27859,2440,13146,-5665,-824,-1041
9187,-1434,-2960,15302,-294,6830,3235,67,-1290
9187,1021,-1890,4608,35,361,2382,319,-2119
9187,1277,-1717,7296,866,3579,1178,111,-1839
9187,783,-4001,12062,-2061,18,3845,379,-2025
9187,372,-5812,11800,-3262,3367,10253,1410,-2211
9187,-888,-4600,14754,-847,7350,6495,1064,-1809
9187,243,-274,9285,-294,-179,695,-401,-1035
9187,-1156,-265,9546,180,2059,215,-366,-1059
9187,-319,1847,18064,2002,-1206,-6387,-189,-1719
9235,731,2893,20024,2367,1808,-9954,-1079,-1485
9235,1551,2082,16290,1321,-222,-7883,-752,-1478
9235,-454,-1155,13889,272,1507,2303,129,-2161
9235,1081,164,5719,-486,-2945,2454,508,-2441
9235,-16,227,10534,-1037,-7521,1385,263,-2542
9235,-279,672,2318,-881,-15215,101,93,-2193
9235,-104,881,628,-304,-19159,-1842,-209,-1982
9235,1476,-2294,12500,-3270,-2113,5630,882,-2701
9235,-157,-1452,11164,-1921,5357,3032,483,-2438
9235,-657,-282,10141,-1222,-670,1164,280,-2311
9284,-682,-423,14178,-368,-2526,-1674,-526,-2083
9284,-223,-1808,13048,-294,-2209,547,-261,-1973
9284,270,306,26639,-87,-10849,-8898,-1501,-1087
9284,-357,-156,20224,608,-8601,-7776,-1423,-887
9284,-639,-1996,17163,-137,11035,3347,590,-2790
9284,975,-1335,14278,-2,7744,2053,361,-2456
9284,1108,36,9397,-60,-1569,3,141,-2250
9284,-453,-5181,14521,-329,-7474,292,-530,-1776
9284,-564,-4981,16118,719,-406,-993,-697,-1540
9284,550,-934,2752,-1784,-13020,3986,679,-3156
9333,-130,-256,29470,3746,5474,-6688,-935,-2095
9333,-858,-1128,20470,512,-4109,2186,242,-2705
9333,-100,-2098,17253,707,1950,191,-143,-2249
9333,-1180,-2056,20351,1818,353,-1175,-395,-2081
9333,848,6341,12745,1159,-18741,-7127,-294,-1860
9333,2080,5848,10355,1464,-10589,-6629,-413,-1705
9333,2019,5423,14378,2441,-3550,-8181,-654,-1619
9333,411,-466,15175,-2109,-13434,4130,719,-1841
9333,-20,-717,17989,-1015,-9118,3112,422,-1567
9333,-338,1140,11432,-2388,-26912,3618,1077,-3245
9382,-451,1578,34617,4460,-14312,-14478,-1546,-2855
9382,595,1416,28355,2107,-20033,-11524,-1418,-2708
9382,-326,-5023,41028,-1239,5769,6620,776,-6301
9382,-1577,-4785,41568,-332,8988,5443,454,-6001
9382,-1284,-4235,38928,1494,8941,2570,124,-5686
9382,-1283,-1577,26586,186,-12606,1729,-83,-7740
9382,-1513,-1191,26509,-613,-15449,903,-55,-7477
9382,264,-1202,34326,1685,-24419,-6695,-1051,-8390
9382,226,-608,29864,1246,-30920,-7189,-1179,-7810
9382,881,21,30391,-3725,-32098,4354,1127,-10805
9431,-464,3256,35106,7347,-24446,-10306,-850,-9597
9431,-64,1197,33910,4606,-22982,-3843,-112,-9548
9431,-932,-775,34435,1987,-36221,-1373,411,-9835
9431,476,1141,50670,5492,-16798,-11579,-736,-8910
9431,241,-314,60210,6011,1942,-11343,-930,-8433
9431,-445,-3178,60218,-3886,-35224,8809,2061,-10317
9431,369,96,43083,-5137,-49420,8041,2219,-10088
9431,-657,-1500,63409,-2333,-38972,4188,1043,-9722
9431,957,-1380,62073,-2554,-37896,3689,895,-9184
9431,-760,-3965,96701,875,-38478,-5921,-656,-8583
9480,1480,6654,50972,-364,-51334,-3004,936,-9981
9480,426,3447,54191,-3616,-39476,6415,1869,-9855
9480,-980,-2238,81518,-3562,-51438,6109,1681,-10247
9480,-1046,-2045,82712,-3379,-44516,5404,1535,-9625
9480,-838,-2325,84427,-1389,-37208,2401,987,-8774
9480,933,794,110464,9826,-41657,-13058,-697,-8792
9480,1306,2573,99385,8428,-26423,-10080,16,-8635
9480,602,-6902,132211,-2459,-38313,6502,1600,-9661
9480,829,-5642,128575,-598,-30465,5648,1496,-9279
9480,35,3858,102717,-1432,-52572,3881,1527,-9720
9529,127,1726,126858,7302,-45634,-12370,-1141,-7531
9529,-821,-484,114921,-1185,-48020,-7879,-999,-6835
9529,-26,-5911,130277,-2423,-32921,9850,2079,-8955
9529,290,-4844,123134,-1680,-33900,9185,2260,-8680
9529,393,-2554,106598,-1887,-46303,7591,2488,-8490
9529,346,-1217,117048,-4144,-53869,4644,1910,-8832
9529,-1554,-1793,100360,-63,-43079,3543,1486,-7842
9529,834,2739,131127,3122,-33499,-11149,723,-8486
9529,-1013,1405,124283,-821,-36396,-8997,618,-7890
9529,-2744,-6724,133306,-380,-31383,2001,613,-7390
9577,800,3550,88576,4292,-40386,-9109,1095,-8224
9577,2633,2619,94691,3420,-38243,-1008,2874,-9502
9577,804,1987,118858,-5400,-62638,8025,5412,-11170
9577,2260,2686,117888,-6071,-38348,7651,5438,-10615
9577,1755,3588,114877,-4360,-28596,5367,5095,-10086
9577,-1431,-4541,139123,-5048,-17413,9452,4151,-8573
9577,-176,-2909,132165,-2643,-11414,9513,4885,-8923
9577,-4762,-7925,112314,2849,-31990,-3700,654,-3895
9577,-5611,-9832,112314,3487,-26277,-4935,-42,-3017
9577,-666,-884,109077,11415,-45861,-4549,2847,-6019
9624,-1941,389,124561,4591,-61080,-13138,1850,-4878
9624,-652,-1902,126632,2582,-45937,-9765,1943,-4836
9624,744,-2909,147932,1420,-13228,6511,5438,-7453
9624,789,-420,123132,812,-26642,5140,5089,-7129
9624,550,3179,99063,-1718,-42842,3867,5261,-5829
9624,853,4920,88143,-3144,-45717,3237,4929,-5407
9624,1537,5565,91868,-3912,-45219,2432,4975,-5240
9624,-1490,-698,87777,7794,-35367,3053,3782,-3363
9624,-1448,161,84538,-5354,-42467,3531,3731,-3078
9624,-967,-2674,131449,1664,-44331,172,4246,-2251
9673,-1872,-1081,132402,13759,-16281,-12554,2905,-1098
9673,-1717,-4136,122141,10970,-20565,-5032,3368,-1652
9673,-1912,2563,103300,7862,-65206,-9113,2531,240
9673,633,4080,95163,-1971,-73384,-7824,3298,-909
9673,689,499,105053,-12788,-84546,8106,5726,-2643
9673,1109,1638,102615,-6621,-72954,6033,4973,-2147
9673,636,1446,101128,-57,-61136,2563,3698,-1176
9673,-25,-4202,129126,-3319,-59647,4267,4261,-834
9673,2291,-3086,123801,-7213,-45499,4207,4433,-1443
9673,-3397,-10472,113278,8281,-41710,-2857,1326,1847
9722,3300,12970,81024,5095,-104126,-450,5275,-1217
9722,1392,8844,71527,-5921,-88530,7650,5415,-1017
9722,-624,-3218,121460,4732,-57788,1260,3024,652
9722,863,-579,107964,4554,-63699,995,2873,638
9722,-1445,2186,82187,17888,-69375,-8105,2026,2611
9722,-727,3332,69895,8392,-83955,-6128,2292,2166
9722,942,4110,67528,-2161,-95432,-5334,2241,1810
9722,12,1580,71814,-10106,-119805,7784,3970,672
9722,991,1046,69397,-8210,-119343,6812,3820,600
9722,-3670,-8380,86117,-608,-129347,675,1792,2280
9772,-1710,5214,58622,10557,-153075,-13041,-909,3482
9772,298,6905,63099,7395,-149524,-8789,618,1948
9772,687,-1962,79690,-11958,-178209,7832,3257,569
9772,-234,-151,67587,279,-148362,6023,2886,608
9772,1245,2285,51933,5368,-143145,4759,2936,480
9772,3976,2552,70521,-8730,-199436,8726,5119,-1767
9772,3160,2521,64625,-7942,-189492,5727,4347,-1280
9772,2117,7660,35190,-7536,-278092,-4844,1562,632
9772,726,8014,43185,-2551,-263947,-6901,975,985
9772,1585,-960,76634,5184,-237051,4212,3348,-1327
9820,2131,5942,37265,1684,-287073,-2851,2115,209
9820,1316,5900,31471,2310,-267007,-4241,1300,698
9820,-794,-4216,44058,8521,-231985,354,400,1226
9820,-1651,-6836,51581,10806,-225506,-1485,-58,1482
9820,797,-1960,50606,5076,-286714,6117,3018,-836
9820,1231,-766,52281,4464,-275782,2841,2398,-867
9820,-639,-4437,45163,-10435,-401134,2774,895,495
9820,-378,-4059,42490,-11102,-387328,2586,1056,283
9820,-1368,-2158,37662,-8960,-405821,303,782,230
9820,-320,778,47599,1823,-615911,-8193,-1147,1704
9868,1917,1335,31979,-11401,-124896,9698,2034,-475
9868,839,1430,35989,-11920,-101869,8583,1837,-219
9868,603,-3484,39848,-2000,369318,795,305,176
9868,739,-2456,38058,-1669,276270,438,583,-77
9868,-2357,-3688,32134,-1882,332199,1748,953,101
9868,-1867,-3722,34282,834,315069,997,1152,-117
9868,630,1051,12218,10237,260881,5158,1504,-642
9868,-806,-2985,19179,2123,242916,3941,622,154
9868,-3090,-5230,20903,368,57305,387,-368,975
9868,1273,1875,31379,-16159,416131,4294,2069,-1425
9917,-545,3976,19385,8182,-965575,-10315,-1289,1473
9917,-3218,-3140,20264,2051,225346,-2996,-1484,1391
9917,1167,3407,30968,-2159,-2279070,-13510,-1635,1380
9917,1528,5973,34163,3920,-2788898,-16534,-1668,1374
9917,1382,1540,15945,7480,709074,4852,1896,-1764
9917,176,-311,28053,8251,579439,2342,1246,-1505
9917,243,263,16554,-6349,690585,4597,1542,-1553
9917,2908,3053,14937,-14861,614890,8360,3078,-2713
9917,2137,2688,19853,-9477,382284,4711,2245,-1901
9917,-506,672,15764,-8559,158386,5172,1493,-1615
10013,654,5657,27067,1813,-76210,-13600,-1537,126
10013,31,-1239,4630,-10495,-76937,5063,737,-2113
10013,-1144,311,4598,-7783,-74451,3731,494,-1879
10013,-15,3779,-733,-4314,-75232,2007,674,-2095
10013,101,-1159,8708,-5519,-104175,5098,708,-1445
10013,-721,-1096,6518,-3453,-101051,2680,369,-1364
10013,413,3368,-3550,1856,-149685,-8472,-2220,28
10013,-83,-295,-2397,-3375,-127426,1744,-1162,-720
10013,-1001,-2568,28780,721,-142941,4218,349,-2444
10013,-15,896,7270,-1543,-136564,1364,-433,-2397
10062,2043,489,9921,8249,-150126,-3813,-610,-1480
10062,1238,-2712,9460,4712,-132631,1679,-67,-1837
10062,-255,-267,12239,-4648,-179598,-11402,-1128,-1200
10062,1560,3936,-13914,-1746,-168686,-8206,-759,-1331
10062,-2448,-11887,47373,39,-166202,4561,-954,-62
10062,-1068,-9933,43069,-3859,-157685,5495,-199,-761
10062,-435,-1025,4379,-3326,-182917,4081,29,-1022
10062,523,-1433,-251,-999,-175388,2385,-567,-470
10062,-720,3739,3869,-1794,-214201,-5070,-824,-760
10062,-616,-103,6256,-1638,-185459,5667,339,-1441
10110,1394,102,2258,-3599,-179998,5177,661,-1795
10110,768,4609,8317,-11546,-200440,5761,1222,-2871
10110,-139,2956,10949,-8766,-190484,2661,222,-1833
10110,381,1806,13773,-5730,-183987,-1280,-502,-979
10110,-438,917,4373,3668,-201432,3099,438,-1310
10110,480,3201,7521,3570,-209071,-8612,-1052,-160
10110,-1798,-4441,6798,-2884,-207526,5011,68,-1007
10110,-461,-4371,10058,3238,-197421,4299,311,-1245
10110,-1293,-4699,19088,-4207,-219374,753,-456,-971
10110,57,-4597,16246,-1042,-208318,-1355,-926,-631
10159,-1375,3548,-1475,10749,-234771,-17532,-3807,2011
10159,-1576,-5925,-2410,-11730,-218559,10429,-248,-918
10159,-2531,-5619,-97,-10444,-204689,9753,277,-1040
10159,-846,-3160,3537,-6391,-198031,6382,622,-1107
10159,-1839,-4055,7949,2807,-210405,-1445,-1517,-64
10159,-2184,-1130,5720,-1851,-200034,-401,-871,-411
10159,1139,2775,-1372,3363,-218898,-541,181,-1401
10159,1364,5923,1623,2817,-225053,-11516,-1095,-575
10159,-2426,-784,-7980,-4516,-218440,2961,-407,-234
10159,-2222,-2162,595,1766,-206959,1079,-622,-67
10207,431,4022,2120,-339,-211398,-2743,-41,-906
10207,382,1274,2218,-12173,-219631,4178,357,-1504
10207,1291,815,900,-4508,-208475,2901,265,-1506
10207,-705,-636,2136,3464,-201123,-668,-567,-643
10207,-352,-4277,21414,-9378,-226794,2847,-687,-540
10207,-560,-5097,12982,-5766,-198419,11591,1090,-1778
10207,-2262,-7405,12888,3312,-212080,-495,-1629,-26
10207,-3657,-6338,18542,3078,-201878,-846,-1696,91
10207,-1703,-1298,6148,-3212,-220025,283,-987,-394
10207,-439,596,8789,1424,-217573,-6006,-1669,182
10265,-69,3103,11936,8475,-227432,-11482,-1764,-688
10265,9,1811,-7126,1950,-211255,3344,443,-2039
10265,-15,887,-914,-2278,-199972,3104,390,-1975
10265,-1889,2297,-24433,-2903,-212395,20,-1319,-611
10265,469,4685,-23203,916,-201058,-217,-288,-1963
10265,3514,6782,-22278,1014,-193564,-1149,683,-2720
10265,1933,-2482,5606,5105,-203126,8482,1312,-2694
10265,1681,-1482,-2716,148,-193972,5020,441,-1984
10265,1776,946,-5291,-130,-209427,2019,569,-2001
10265,669,183,-3282,-768,-200009,974,246,-1348
10313,-649,3727,13147,9562,-245341,-17234,-2905,848
10313,2,1239,16744,9730,-231987,-15227,-3193,1181
10313,-840,-939,20575,9534,-218563,-12869,-2982,1230
10313,-2311,-3066,696,-2228,-204251,4912,-758,-297
10313,-703,-2385,3866,496,-194545,3551,-521,-321
10313,246,1320,-6420,-12915,-212140,3336,33,-1668
10313,1100,816,-2245,-5668,-203570,945,-246,-1562
10313,-260,-5250,9513,1745,-219117,3533,-26,-1691
10313,-2338,-7575,17373,-2337,-202056,5829,104,-1218
10313,-2068,-7232,26726,-1674,-194369,1522,-637,-55
10362,-810,168,2911,3778,-223150,-3710,-1169,-456
10362,-1308,-2633,3805,8726,-204218,309,-954,-394
10362,-628,-1467,14567,16166,-207185,-8793,-2023,595
10362,400,4537,3024,2981,-227598,-8162,-1031,-625
10362,1637,5887,1748,-764,-215686,-4473,-27,-1239
10362,-1367,1087,-12892,-1036,-203687,4433,-98,-886
10362,122,1651,-10401,598,-194306,3639,183,-1173
10362,852,1514,-8897,1555,-186845,2087,339,-1320
10362,1226,-1909,9274,-5207,-196212,2814,195,-1668
10362,212,-1713,15179,-938,-188021,515,-106,-1580
10411,973,569,4622,3167,-224334,-7154,-1234,-47
10411,-639,-851,13657,2264,-214633,-7647,-1652,283
10411,1166,-2286,16984,1183,-193689,189,-281,-769
10411,854,2,4968,-5218,-199929,2897,107,-2348
10411,1500,-749,2535,-4911,-189310,1673,-349,-1709
10411,-2385,-845,11571,4703,-225237,-8839,-1731,937
10411,-2314,-1203,23791,3393,-215551,-9065,-1820,1096
10411,-1253,856,26069,-1526,-207316,-9141,-1887,993
10411,-1442,101,-14084,-1268,-190520,4888,-7,-1125
10411,-1839,-946,-15782,-6016,-181044,4190,-70,-796
10460,-744,5524,7812,-2149,-230149,-12790,-2022,544
10460,-1468,3993,8798,1196,-218657,-12146,-2719,1184
10460,-1740,2081,10103,2245,-203612,-8909,-2715,1363
10460,2293,-28,-20318,-4930,-189251,11518,1558,-1967
10460,2022,429,-22368,-1744,-180243,9303,1103,-1596
10460,-1004,-2842,-2845,2485,-194993,6881,763,-1248
10460,104,-1542,-958,-2702,-185037,8730,1327,-1342
10460,2136,-869,3011,525,-178262,3319,537,-1295
10460,-738,1215,2490,-343,-212303,-7150,-1457,232
10460,-275,586,2584,2061,-202581,-8360,-1883,655
10509,-1273,-5045,7609,-3796,-212581,-3108,-1882,657
10509,-2072,-5394,-1563,-9530,-190824,4828,-551,-257
10509,-1350,-2737,3702,-5824,-189364,-819,-758,-134
10509,3397,3978,-12695,-5966,-200075,5895,940,-1526
10509,1269,3472,-5169,-4535,-191136,3686,270,-985
10509,-227,-1709,1544,-7394,-204260,6827,129,-681
10509,1347,-306,-1868,-6988,-193798,5393,60,-724
10509,120,513,-7164,-7158,-187360,2587,-131,-398
10509,-79,254,-10945,-6311,-196254,5432,546,-1578
10509,-383,-526,-4005,-4752,-187148,2988,164,-1098
10556,1758,1561,7660,3766,-230392,-9929,-869,-519
10556,703,666,9794,-5028,-217770,-7769,-921,-146
10556,-773,-1376,1073,-12972,-192709,3630,291,-618
10556,1593,1532,2374,-2241,-191338,4381,586,-1387
10556,1615,374,4920,-2739,-181507,3758,476,-1186
10556,-2637,-3776,2152,10798,-196981,-1289,-1574,97
10556,-1769,-633,-1298,870,-188389,-546,-947,-190
10556,-650,-620,-18339,-10104,-197046,12195,829,-1461
10556,-605,-426,-13254,-8813,-187821,9533,740,-1511
10556,1279,69,-7918,-5849,-181546,6141,628,-1492
10605,-1008,-1855,11233,-1114,-213222,-5209,-1387,64
10605,-662,-1725,-8283,-6330,-190268,2951,-326,-591
10605,-796,729,-16699,-1503,-187411,-4533,-1846,643
10605,1793,8164,-4545,8692,-230524,-16892,-1784,-336
10605,2128,9459,-11685,16482,-226845,-20682,-2598,297
10605,-164,-2553,-8822,-899,-188418,6391,-45,-808
10605,478,-2947,-6676,-2770,-179792,4044,-654,-212
10605,-180,-3030,-3928,-2161,-193915,3156,-573,-699
10605,-24,-1345,-2587,2769,-183581,3075,-333,-1091
10605,1252,-1013,5345,4058,-176576,805,-608,-943
10654,-2516,-6111,13730,1464,-199568,4238,-703,-496
10654,75,-3940,8282,750,-187218,4832,-167,-1170
10654,1794,2654,9647,4611,-195635,-8603,-1225,-838
10654,1139,749,-6298,-6289,-187387,5803,526,-1663
10654,1083,-30,-2199,-3364,-178144,3864,-139,-1273
10654,1921,4566,20359,7188,-236290,-18528,-2728,114
10654,106,2279,11079,4495,-222208,-12779,-2350,102
10654,1746,2360,6363,5495,-208471,-11002,-1755,-193
10654,139,-3807,-18717,4600,-180910,5970,-466,-860
10654,-684,-1360,-7298,-4344,-173327,6938,452,-1149
10703,743,1931,-1513,4849,-214684,-9730,-2029,-457
10703,-474,2550,-773,3580,-208877,-11120,-2301,-41
10703,369,918,-2135,117,-195102,-7970,-2061,-114
10703,282,1801,-14735,1727,-183141,9065,240,-2187
10703,155,1141,-11252,3618,-174431,7049,-80,-1860
10703,1280,-974,-4145,-5266,-184990,5279,-380,-1624
10703,1169,-489,226,-2263,-175253,5285,-161,-1716
10703,-720,270,3761,2713,-169299,2762,-290,-1604
10703,-906,-4550,-5839,-229,-181212,6254,-930,-2029
10703,163,-4025,-3633,769,-172334,5682,-657,-1611
10752,1902,3653,8017,2495,-210347,-4453,-689,-1768
10752,1680,630,439,424,-185360,5352,1336,-2651
10752,55,85,1297,2284,-177449,2446,2031,-2480
10752,-1330,-1115,12173,-180,-207312,-9619,-2047,-482
10752,667,-503,12497,365,-197450,-9475,-1489,-776
10752,-455,1226,-12694,173,-186709,8903,1233,-2619
10752,-787,-155,-7965,4304,-176718,7104,563,-2052
10752,851,73,-5688,5880,-169631,4136,239,-1765
10752,48,1937,-8971,-4765,-178314,5406,389,-2062
10752,-131,611,-8292,-4520,-169511,3918,-62,-1460
10801,-11,277,3251,3866,-214415,-7929,-1769,95
10801,335,-1554,2592,-6076,-191968,2025,-553,-613
10801,-698,-2760,2192,-7498,-175360,5926,37,-814
10801,-1691,-1987,-22338,-1488,-184505,2410,-954,-194
10801,-1316,-3445,-16225,-6433,-176476,827,-1392,335
10801,-211,-320,15668,1529,-208523,-7981,-1567,51
10801,-1153,-151,7128,-1429,-197826,-6612,-1143,-23
10801,103,2221,-9090,-4060,-190751,-8516,-1351,160
10801,97,-6631,1735,-9020,-178654,6963,265,-956
10801,-975,-4925,3889,-14162,-171036,6077,46,-758
10850,1256,5083,-1307,2686,-218447,-12539,-2178,-138
10850,-443,2607,2104,4352,-203873,-9058,-1873,-2
10850,-263,547,7430,7708,-192643,-7400,-1826,415
10850,-2296,-4636,-14011,-4560,-180780,9018,311,-1499
10850,-1886,-4085,-12013,133,-171929,8005,578,-1671
10850,2144,-476,-4162,-3510,-181266,7520,2543,-2035
10850,2603,-1230,-1334,2339,-171869,6781,2397,-2300
10850,2094,-1982,3558,7926,-164904,3988,1645,-2127
10850,-1235,45,11779,-1271,-198413,-6063,-1699,404
10850,-432,-1237,13257,-309,-188062,-6277,-1807,544
10899,-945,-3709,-8055,-7258,-196007,4235,-255,-1773
10899,-267,-2932,-12650,-1062,-181969,4656,215,-2121
10899,730,230,-284,11225,-189837,-9203,-1347,-528
10899,-1303,-2991,-5488,5349,-181359,4467,-182,-984
10899,588,-502,-18538,-2635,-172679,5707,445,-1287
10899,332,-982,-3619,-4278,-186970,6934,-258,-941
10899,400,-708,-3054,-9283,-178314,6261,-153,-970
10899,1096,453,-16479,119,-190646,3902,459,-1517
10899,1191,1752,-16756,2475,-181609,3042,350,-1381
10899,582,3136,-11197,5281,-175950,224,-181,-927
10947,-2316,89,8838,5316,-209347,-7803,-2059,375
10947,-504,-2472,-5166,-4133,-178112,8442,543,-585
10947,1058,-951,4078,-7374,-189923,2948,-218,-635
10947,-857,-16,-3629,-4757,-180171,2024,-475,-369
10947,-642,1449,-5935,-788,-173676,361,-400,-758
10947,928,2540,-10113,-722,-181404,2915,521,-1776
10947,1425,1583,-1656,-924,-172789,1692,23,-1347
10947,317,-1112,-11786,-7080,-184058,9079,911,-1766
10947,-415,-25,-10677,-9274,-174397,8064,1051,-1862
10947,-1748,-6456,19237,6936,-188841,-1002,-979,-389
10996,-1278,533,-7488,7874,-195930,-2643,-1113,-23
10996,-60,-2301,-4884,938,-176236,3063,-546,-424
10996,-937,2718,24637,-1708,-234504,-18540,-2485,637
10996,413,-209,19676,-4634,-210397,-8659,-1276,-243
10996,531,280,22218,-1356,-206805,-14001,-1894,433
10996,2467,639,-12956,835,-177185,5423,215,-1889
10996,2790,658,-10984,-2746,-168134,5935,501,-1917
10996,-1687,-1944,-5153,8362,-178343,1658,-180,-1150
10996,-1724,-1529,-10271,18947,-170714,-30,-409,-1041
10996,-511,917,-11855,-1140,-181765,5267,353,-1737
11045,-1184,2657,4569,2800,-198391,-7799,-1273,-33
11045,-448,-1077,1626,901,-173534,2236,-139,-868
11045,-1004,-914,4203,2847,-164797,1339,-127,-1033
11045,-1087,-2245,6567,-289,-175948,2340,-407,-1217
11045,-1453,-3472,12628,5426,-167387,1393,-592,-903
11045,605,696,18725,-5898,-205263,-5126,-1065,-120
11045,-395,-2443,12103,-14502,-172980,7873,516,-1161
11045,931,382,-19432,-4179,-179221,2759,-327,-754
11045,-99,-333,-15593,-2765,-169866,1909,-587,-326
11045,-1447,215,-11670,-989,-164430,-1028,-1098,2
11093,715,5847,1586,5491,-208797,-14648,-1240,-136
11093,2727,6178,9104,2706,-197830,-11979,-885,-533
11093,-139,-997,-12022,-1161,-182059,7446,1404,-1373
11093,1491,344,-16627,-1086,-172691,6483,1114,-1352
11093,972,2610,-19563,-1180,-166863,4374,988,-1522
11093,-54,-874,-2702,-6694,-177855,4117,647,-1093
11093,-105,-1089,-2848,-3499,-169128,2604,372,-839
11093,-697,-2947,4652,-4408,-188631,3284,-639,233
11093,-521,-2259,-1081,-2238,-173868,5740,-19,-89
11093,-455,2420,-8795,-7178,-187298,4516,611,-1921
11142,2208,1052,3680,3254,-193679,-2327,-1110,1126
11142,1696,719,-237,1422,-175140,2911,0,-71
11142,2146,2492,5650,4542,-178553,-6481,-739,278
11142,309,2304,2038,-1526,-202295,-9333,-2037,1017
11142,-336,2908,7359,-451,-191962,-8739,-1801,695
11142,-1050,-127,-11860,-3952,-180578,5635,686,-1097
11142,-754,901,-12702,-6496,-170804,5366,913,-1096
11142,89,-1254,14327,3669,-187015,3838,470,-583
11142,1519,-705,12568,2585,-178174,3202,673,-732
11142,-34,-998,-2502,-1669,-189183,6175,525,-386
11191,366,-345,13003,-3245,-197206,-3622,-184,-285
11191,638,-131,-8395,923,-179981,905,156,74
11191,-1,2421,-3664,5971,-189208,-11514,-1693,1352
11191,1983,3271,-4759,-5631,-176646,3388,740,-290
11191,1678,2660,1309,-6723,-168668,1759,375,-168
11191,-468,2273,15241,7821,-202930,-9474,-1208,765
11191,-728,2645,3365,4581,-192623,-8230,-1157,771
11191,-749,-1372,149,3310,-178834,5913,582,-793
11191,-513,-720,-11002,-1241,-170986,4876,666,-711
11191,-645,-1863,-14880,-353,-165690,1368,-308,146
11240,1313,3256,7588,-1474,-209269,-12718,-1798,944
11240,766,3080,7537,-2542,-199698,-11809,-1905,791
11240,-201,1311,8968,-3977,-185878,-8348,-1725,625
11240,520,-5720,22565,1477,-169135,12233,2838,-1747
11240,624,-4896,14672,3012,-161301,10121,2213,-1797
11240,-961,-3241,265,4824,-177497,3285,-441,245
11240,-2230,-3180,-808,3325,-168555,2023,-687,372
11240,291,2883,-1963,8556,-203032,-8384,-1858,968
11240,-868,3306,-994,7595,-192690,-6648,-1433,886
11240,-817,3974,28,6014,-184546,-7764,-1432,876
11336,1133,539,10015,7354,-208853,-8778,-1063,701
11336,-117,-626,15124,5624,-198383,-8606,-1373,940
11336,1031,-2268,-2090,-4514,-181115,3683,102,-551
11336,1389,-976,-7142,-9,-171845,3151,80,-756
11336,812,-265,-8050,6776,-164261,1046,-414,-386
11336,-788,-126,444,-3258,-177331,2958,-6,-766
11336,-1521,-1419,6667,-1115,-168359,2452,138,-587
11336,74,-1046,-15407,735,-177426,9697,1110,-631
11336,361,-589,-12220,576,-169478,7039,1171,-995
11336,737,498,4419,369,-180030,3026,429,-426
11384,214,1862,9977,5396,-196956,-11508,-1475,845
11384,-2038,-2210,8806,-486,-176381,-3622,-1247,878
11384,-329,1712,7338,1742,-202030,-6586,-1185,460
11384,-422,674,9820,-578,-191547,-6658,-1268,540
11384,-684,-38,12866,-4329,-185419,-8348,-1487,781
11384,2561,2034,-2617,-1948,-170205,7900,1757,-1727
11384,1317,1848,-6662,-2564,-162096,6252,1524,-1568
11384,605,-2160,1895,-3989,-179115,5708,948,-820
11384,53,535,-5452,-3882,-171857,4458,1066,-1005
11384,-346,-3835,-1813,-9483,-179504,6447,425,-89
11432,825,758,-3359,5220,-197697,-8196,-3305,748
11432,-279,385,-6512,522,-179107,-1072,-1696,-152
11432,-1192,-1887,-15380,2394,-181193,1869,-277,-223
11432,-1494,-2891,-7662,3114,-171843,1200,-366,78
11432,537,2452,9858,-11270,-205972,-5950,-417,-154
11432,2116,2330,13886,-16940,-194677,-3224,298,-411
11432,1013,2545,16221,-10145,-185354,-2628,255,-142
11432,-71,-3735,8766,3231,-172030,4304,306,-423
11432,-415,-2979,11327,4592,-163336,4287,496,-711
11432,-2783,-8183,32534,-1022,-178283,1693,-642,296
11480,-1251,1001,-11197,293,-176543,862,246,-548
11480,-414,5423,-16516,4529,-185131,-10101,-580,-215
11480,424,-1856,-7806,-2869,-174938,10217,1169,-491
11480,1149,-1186,-6443,-9268,-166368,9669,1589,-953
11480,-2595,-2791,-12714,4118,-181058,1195,-904,974
11480,-1992,-2876,-7428,7623,-172341,-513,-932,812
11480,1649,3887,4863,2171,-207857,-7532,-300,-334
11480,590,2947,-4491,5345,-197301,-7390,-574,84
11480,-580,137,-8482,-827,-189437,4407,957,-920
11480,-996,-691,-9511,3326,-180113,3243,578,-685
11529,1573,273,2,-753,-191206,-3155,-406,8
11529,419,1298,-5121,7592,-192678,3347,839,-1089
11529,1004,841,-4711,4007,-182945,2512,550,-842
11529,-229,1270,2998,-3313,-177650,-488,87,-739
11529,229,-1967,-12968,-2859,-189104,8986,939,-930
11529,-1044,-1363,-15827,3469,-180459,6409,455,-633
11529,1604,1900,-6180,-5907,-193939,3956,1215,-1447
11529,1063,1936,-5506,-5090,-183214,3140,1204,-1517
11529,1555,711,-2443,-1419,-175176,662,578,-924
11529,-459,-846,-4101,4180,-208002,-10494,-1330,685
11577,409,78,7760,-3088,-196218,147,-2402,162
11577,-2513,-2855,-12789,6261,-193229,145,-637,-16
11577,-649,-2356,-7799,5386,-182801,779,-9,-455
11577,-216,-1911,-1113,347,-174892,704,326,-650
11577,1664,-249,305,-5919,-189764,4043,984,-1137
11577,1565,-234,287,-5569,-178545,3804,926,-1070
11577,-293,-2759,-2536,-4504,-191950,8826,1016,-937
11577,1441,-1429,-2810,-3969,-183037,6544,1036,-1148
11577,-944,-280,-3784,-199,-197791,-1152,-817,183
11577,-1312,-911,-2058,68,-187426,-2496,-1444,668
11626,1010,2089,-10881,-2597,-188845,1107,167,-442
11626,-2306,3417,-10701,12202,-236477,-18464,-3139,1413
11626,-1412,3974,-3710,10318,-232582,-21101,-3369,1810
11626,-2298,2996,3018,2825,-216900,-15474,-2592,1616
11626,247,-858,1795,6664,-182613,4766,829,-1494
11626,558,469,-1944,3468,-174608,3854,842,-1212
11626,448,-1542,10805,-3910,-188850,5246,789,-1186
11626,88,-2669,12218,-3280,-178902,4329,550,-950
11626,-1178,-2985,-1706,-7016,-191468,5006,33,-586
11626,72,-4861,10019,3763,-181049,1213,-884,-410
11675,-1117,-1273,-15750,-7047,-192953,-3076,-620,171
11675,1136,-880,-22119,-11362,-171736,6167,1068,-1037
11675,-272,171,2195,-5236,-179040,2229,501,-1120
11675,-883,31,3401,-4774,-170487,2930,494,-558
11675,-449,4971,23616,15957,-230781,-21287,-2966,1787
11675,-447,1521,17563,3571,-210364,-12627,-2143,1449
11675,459,-367,-5110,645,-181828,4530,270,-875
11675,1448,-598,-7572,4214,-172542,4248,303,-822
11675,144,-498,-8536,7049,-166883,1341,-283,-190
11675,393,-1718,1890,9500,-179178,5436,1097,-958
11723,467,6156,-158,-2400,-203259,-13316,-1899,971
11723,139,-1009,-7939,-7767,-187196,9007,1618,-1413
11723,17,-1288,-4592,-8518,-177556,7623,1292,-1123
11723,-142,-431,-1317,-7126,-171433,4291,868,-814
11723,403,-143,-16739,-585,-178878,3217,824,-477
11723,1287,-369,-8288,5530,-170955,1661,388,-289
11723,-438,2756,4344,-6950,-207822,-4455,-422,104
11723,-95,2285,-1756,-8601,-192513,-928,34,-177
11723,379,-2672,7988,3602,-185442,2348,111,-662
11723,-670,-3091,10578,892,-176282,2089,308,-648
11772,-2740,-88,-9468,-913,-191645,-8958,-2073,1223
11772,-404,1889,5831,2065,-208791,-9766,-1013,202
11772,-592,1755,3180,4499,-196992,-8507,-1220,692
11772,667,2296,2048,6073,-189907,-10267,-1858,1334
11772,-150,-1435,-142,-6269,-178092,7942,1152,-1504
11772,541,-1598,-1602,-2855,-169696,5987,533,-952
11772,1484,2391,-6869,6228,-182319,3817,1237,-1938
11772,-22,1007,-3328,6891,-173115,3190,1095,-1901
11772,1572,454,5654,-4593,-201888,1789,336,-1512
11772,355,-2331,1535,-5303,-178843,10156,1598,-1871
11868,-457,1827,-3748,4597,-177521,441,1624,-1206
11868,1919,2210,-2474,-4359,-214706,-5837,-764,-481
11868,-367,2953,3333,3516,-212035,-12245,-1559,47
11868,-1740,1137,11860,5524,-202797,-13381,-2300,657
11868,1090,294,-16456,-8857,-169345,7049,720,-880
11868,865,1346,-21444,-6058,-160952,5494,281,-755
11868,-438,-3405,6922,1904,-179252,1522,-255,-319
11868,-1737,-1122,13906,7760,-187726,-10343,-1836,686
11868,87,-3651,215,297,-179755,4625,220,-795
11868,-179,-2121,-903,-1095,-171333,4470,784,-1527
11917,1458,291,7132,792,-180573,-752,-27,-1012
11917,-2354,-2398,6462,-4330,-180855,3047,-181,-321
11917,-2398,-3670,8718,-3037,-171686,1950,-580,-202
11917,-930,-3325,9707,-1443,-166107,-277,-824,1
11917,-491,-1078,-5264,-9076,-179554,13733,2414,-1793
11917,-1748,-1564,-11270,-9096,-171292,10875,1697,-1024
11917,360,-28,561,-1277,-185380,4429,1053,-1403
11917,-747,679,1712,897,-177935,2169,735,-1170
11917,664,436,-10779,5527,-196159,-3323,-564,-733
11917,346,3301,4926,6079,-203217,-13985,-1794,159
11975,-573,2925,9397,1863,-195458,-7918,-995,-368
11975,1712,-616,6882,6141,-185334,3369,323,-1453
11975,871,-1861,9059,2166,-176458,2745,79,-1206
11975,858,-3223,-2264,-5773,-188964,2247,404,-1300
11975,1249,-2415,4540,2372,-178753,2078,618,-1562
11975,1119,-1230,11186,9883,-170715,992,656,-1642
11975,-1249,-4312,-6457,8356,-184820,7238,101,-262
11975,-452,-4627,158,4450,-176250,5572,78,-107
11975,-217,-1096,-9291,-1435,-190463,2085,223,-862
11975,-655,624,-13103,-1246,-181861,1038,146,-721
12023,2661,5656,15602,9359,-226018,-15140,-907,-628
12023,1959,4271,12449,7701,-212291,-12476,-813,-484
12023,1322,2742,11106,4233,-198081,-9796,-921,-325
12023,287,-3511,2200,-509,-183576,4142,-411,-274
12023,341,-2955,569,-1650,-174039,4062,-262,-364
12023,1297,-940,19560,-3780,-185058,4460,1203,-456
12023,1802,3218,-414,-10293,-175932,5977,1917,-1495
12023,3654,5659,-8380,-10935,-170233,4290,2110,-2220
12023,-1493,-2594,-7308,-6671,-182310,6347,109,-795
12023,-462,-1076,-2598,-6532,-173838,4747,486,-1101
12072,749,4881,-11649,38,-212219,-4868,-223,-419
12072,183,3275,-20612,-5223,-187081,5030,1003,-1288
12072,1200,3388,-11897,-3758,-180706,1075,374,-779
12072,-2617,1219,7453,1218,-209076,-9681,-1429,604
12072,-2256,700,8714,2822,-198296,-10020,-1720,605
12072,-1536,-3617,-397,6604,-191151,3766,-292,12
12072,-3125,-4367,6099,11920,-180780,2743,-476,237
12072,-3450,-4435,9716,13151,-172048,1194,-746,476
12072,-1873,-3417,9433,-4566,-183100,1817,-73,-486
12072,230,-2406,10866,-369,-175575,406,189,-567
12121,723,536,-17834,-4232,-201981,1070,-436,68
12121,1320,771,-11096,-622,-186488,3427,319,-680
12121,2115,4690,-95,3105,-193373,-7068,-276,-507
12121,-794,-3043,4040,7183,-188412,411,-943,275
12121,-565,-674,-1446,732,-179480,1521,24,-383
12121,938,3218,2316,-7038,-214698,-8686,-1480,777
12121,1229,3868,2702,-5036,-203173,-7496,-1147,483
12121,-526,4097,4193,1640,-194658,-7833,-1019,388
12121,-4765,-8477,5515,14337,-182486,-35,-1792,1565
12121,-2370,-7907,12108,7151,-173079,-22,-1437,1239
12169,2111,7485,-1695,6126,-217718,-10349,1214,-354
12169,3242,7310,-1718,4817,-210868,-11544,696,-316
12169,1113,5110,689,1101,-199223,-9396,44,258
12169,2175,-1283,-20206,-5092,-183847,14084,2331,-1858
12169,2607,943,-18910,-1109,-175083,11853,2286,-1976
12169,-572,-4568,2852,-1983,-190320,4667,48,460
12169,-441,-3437,469,-3634,-180420,4494,-27,248
12169,-1737,-2479,109,-3590,-173242,3821,180,142
12169,43,-563,11633,-3874,-208607,-8931,-1808,1674
12169,-84,-523,9091,-2884,-198159,-8340,-1773,1524
12217,-2201,-3837,-12398,9395,-198864,-874,-1491,1457
12217,-3138,-1621,-4259,12181,-204928,-10887,-2354,2235
12217,-2511,-2926,-5392,6817,-185714,-2923,-938,993
12217,336,1013,-2555,-5780,-187479,5371,947,-381
12217,1048,974,-1058,-6721,-178750,3852,542,34
12217,-1135,-5806,-5627,776,-192931,7246,563,319
12217,69,-5689,994,594,-183030,6875,388,736
12217,18,1958,-6635,-9534,-197984,5968,1099,-554
12217,19,1510,-4715,-6294,-187838,5468,1093,-478
12217,1064,1029,-3488,-4737,-179073,3777,865,-239
12265,705,4087,1035,-3583,-220175,-6970,-575,259
12265,1559,2629,2922,-794,-208055,-6037,-557,247
12265,240,1804,1498,-23,-196144,-4943,-579,441
12265,1890,222,-175,-3896,-185775,6626,1167,-1079
12265,1108,1350,-5050,197,-176123,6067,1288,-1428
12265,-299,-1211,-12808,819,-189429,2945,281,-198
12265,1231,-1611,-6261,2401,-180733,1791,147,-244
12265,1107,2803,-13207,5952,-193282,6409,1254,-1353
12265,-243,1065,-9842,-2031,-183263,4526,561,-515
12265,-1906,-707,-5772,-7014,-176894,3451,217,789
12314,-524,1863,2651,-11760,-209394,-3240,-68,414
12314,122,-126,832,-9500,-185678,3977,785,-99
12314,1348,1074,4455,-454,-182583,-1782,225,483
12314,-327,-637,9706,3779,-206273,-7235,-1653,1172
12314,-356,274,-475,7920,-194781,-6819,-1222,1018
12314,333,517,-9736,1846,-190355,4182,852,58
12314,-1617,-457,-2893,2144,-181491,2748,473,354
12314,1129,-1095,-4798,-1479,-193291,2485,417,-160
12314,781,-373,-12719,-2066,-183052,2819,703,-197
12314,-397,744,-13638,-1784,-174870,1575,620,-117
12363,964,3950,-6353,3684,-218795,-9269,-1012,1161
12363,-190,699,-8545,-2522,-193364,1148,129,373
12363,372,-522,-6483,-7566,-180293,2302,430,203
12363,-1397,545,-17760,-5401,-189895,2400,314,175
12363,-1356,743,-17395,-3872,-180192,1310,69,298
12363,-808,965,596,-10866,-215637,-5517,-262,845
12363,471,4576,-2550,-1294,-221627,-15919,-1409,1663
12363,367,-813,-8674,2426,-195549,8552,1988,-860
12363,911,-1268,-6527,-554,-185590,6773,1531,-820
12363,-39,-866,-2478,-612,-179229,3164,819,-581
12412,977,1867,8710,8447,-223901,-14182,-2082,1540
12412,-405,768,12294,1975,-208770,-8830,-1097,1133
12412,-563,352,14055,4112,-198027,-7660,-685,1182
12412,-758,-4394,-3800,-2577,-183199,8966,1194,-157
12412,814,-2912,-9260,-2389,-173817,7344,748,168
12412,1093,-457,-2516,1702,-187985,4319,850,-735
12412,-46,-326,-4229,1819,-177921,3586,623,-681
12412,-197,-777,-3991,2406,-170382,1917,264,-325
12412,1899,3056,-9338,-1048,-202960,-4012,-88,209
12412,1241,3371,-14670,-1766,-195840,-5237,-132,167
12461,-555,1228,-5463,-202,-213938,-3702,-434,561
12461,1520,-2357,-3677,1226,-189651,4533,584,76
12461,1361,735,2240,6156,-199265,-8805,-1199,1108
12461,262,2842,-4623,4197,-214328,-8265,-1360,591
12461,-907,646,-5674,3916,-201854,-8075,-1905,947
12461,521,-2514,-14648,-157,-192787,7686,490,-413
12461,101,-3939,-10875,2512,-182286,6011,58,-73
12461,-1011,-5088,-7662,5236,-174626,3229,-524,365
12461,878,-1394,-11420,-1582,-192758,5372,1017,-613
12461,-257,-1982,-6955,-2482,-182528,4767,850,-528
12510,663,1419,-12862,5284,-225935,-5653,115,-694
12510,-387,-787,-15201,6557,-201378,2916,1076,-1362
12510,431,-2475,-15742,8984,-183545,5860,1181,-1460
12510,488,-1163,-21496,4944,-196966,3887,522,-797
12510,-1222,-1565,-17855,5063,-187246,2294,0,-423
12510,-170,1521,-6668,-7615,-226215,-8104,-1124,371
12510,-558,902,-9495,-3978,-213349,-7357,-1225,374
12510,-1799,970,-13597,3327,-204700,-8439,-1346,564
12510,226,-1129,-36218,-3211,-194683,6837,1040,-1005
12510,-618,-105,-38239,-5546,-184574,6664,1165,-1111
12559,-746,4231,-28876,4526,-243704,-12542,-1748,997
12559,-56,2939,-29913,3001,-227641,-8507,-1722,1147
12559,-38,2096,-28778,2006,-214177,-6426,-1589,1118
12559,-92,-2666,-44634,268,-202447,15239,2862,-2046
12559,640,-2311,-42282,-1618,-192950,12739,2356,-1666
12559,-1298,-975,-50995,-5719,-208586,4274,508,-465
12559,335,-627,-49036,-3227,-197322,2562,135,-479
12559,-725,-619,-45996,944,-188270,429,-117,-454
12559,1467,4126,-42786,5444,-223099,-7539,-614,430
12559,58,3239,-40135,7720,-211048,-5928,-428,297
12608,91,-2631,-69936,-8520,-211585,4440,353,471
12608,-464,-3075,-66824,-6524,-197555,4866,218,581
