timestamp,ch1,ch2,ch3,ch4,ch5,ch6,ch7,ch8
66,0,0,0,0,0,0,0,0
66,-554321,-273693,-154746,-885602,-1127854,53451,778844,-494412
66,-521454,-257231,-146972,-833220,-1061226,50845,732874,-465610
66,-492498,-241804,-137688,-783934,-997480,47743,689662,-438028
66,-461985,-229287,-129171,-738026,-914905,49916,648368,-411290
66,-436383,-215180,-121554,-694343,-870874,44949,609991,-386721
66,-409157,-201058,-114337,-652650,-843539,37237,574131,-363743
66,-386166,-189740,-106703,-614123,-780221,37777,540256,-342814
66,-363699,-177769,-100437,-577780,-746847,32866,508485,-322745
66,-340453,-163184,-95290,-541676,-772174,16386,478882,-304098
114,-321619,-151632,-88835,-508778,-759659,9654,449934,-285350
114,-305161,-144224,-83384,-479214,-691922,13684,423179,-268407
114,-283147,-141829,-79046,-453615,-552029,33014,398110,-253069
114,-265976,-133176,-74598,-426764,-523005,30320,374582,-238086
114,-249451,-124777,-69273,-400921,-497397,27682,352847,-225143
114,-236605,-116876,-64958,-376696,-477932,23538,332011,-211798
114,-223532,-115087,-59236,-356821,-366792,39504,310824,-198570
114,-210427,-107154,-55351,-334986,-360739,33113,293003,-186736
114,-197742,-98723,-52197,-314193,-373484,24137,276111,-175452
114,-186843,-91446,-54114,-295943,-376429,19184,259954,-164868
163,-175432,-85076,-47836,-277874,-370875,15242,244266,-155201
163,-164913,-81459,-44855,-261387,-322496,18528,229838,-146044
163,-153435,-70655,-42704,-243820,-407601,-3332,216408,-137328
163,-144437,-66477,-40856,-230974,-379513,-1817,203840,-129345
163,-137304,-68880,-38352,-218706,-252235,19551,191608,-121791
163,-127120,-64011,-36159,-205309,-249807,15605,180398,-114721
163,-121217,-59104,-34059,-192471,-253824,10682,169798,-107928
163,-115131,-56850,-31339,-182133,-223302,13882,159713,-101292
163,-105646,-52377,-29934,-171013,-225252,10040,150440,-95164
163,-98867,-52173,-26669,-161325,-164990,18227,140822,-89812
212,-92789,-42798,-26749,-149642,-261419,-2774,133027,-84905
212,-87839,-45315,-25058,-142610,-158617,14439,124599,-79751
212,-81833,-41640,-23391,-133792,-162133,10182,117639,-73599
212,-77253,-39068,-21659,-125686,-156496,8672,110637,-69443
212,-75902,-31569,-20074,-115587,-239663,-10172,104193,-66389
212,-68935,-29940,-18959,-108823,-219490,-8311,98087,-62616
212,-66134,-27957,-17911,-102742,-208123,-8079,92262,-58988
212,-62829,-32663,-17443,-99135,-98750,12704,86301,-54979
212,-60876,-29748,-16484,-93215,-106502,9228,81410,-51841
212,-57057,-27790,-15084,-87770,-94447,9911,76461,-48424
261,-50326,-18001,-14800,-79180,-235220,-20104,72348,-46050
261,-47089,-19070,-13732,-75236,-184353,-11636,67810,-43127
261,-44343,-26422,-10748,-73730,-25308,18222,63634,-40317
261,-41680,-24377,-10393,-69249,-33346,15285,59860,-38068
261,-40264,-21303,-11582,-64959,-58667,9588,56165,-36047
261,-39933,-20228,-10379,-60674,-56519,8516,52735,-33870
261,-37321,-18442,-9585,-56444,-64807,5309,49803,-31915
261,-32555,-12106,-9542,-52530,-139878,-9590,47101,-30307
261,-32689,-11831,-9078,-49640,-124460,-7492,44254,-28494
261,-28791,-15902,-9101,-47734,-35163,8708,41585,-26661
310,-27404,-7408,-8466,-41629,-159031,-17839,39790,-26687
310,-25395,-10689,-7571,-41377,-91218,-3071,36648,-24985
310,-26385,-10897,-8909,-38707,-76607,-2705,34848,-21999
310,-24734,-4340,-9083,-33897,-171093,-22587,33238,-20627
310,-23005,-4379,-8513,-32054,-155142,-19319,30887,-19247
310,-22738,-14572,-4792,-34195,29917,17305,28333,-17958
310,-20979,-13114,-4506,-32190,20671,14654,26902,-17030
310,-18900,-11861,-4804,-28912,-598,9878,25124,-15792
310,-15879,-10316,-4479,-26723,-15224,6137,23743,-14935
310,-13969,-5119,-4087,-24911,-76635,-5976,22407,-14590
359,-17527,-4634,-3708,-22132,-74409,-6533,20828,-13305
359,-16597,-10350,-2910,-22919,28467,13985,18977,-12133
359,-13981,-8831,-1993,-22054,7975,9506,18688,-11883
359,-10757,-7933,-2142,-20617,810,7487,17615,-11172
359,-10384,-6236,-2371,-18979,-21037,2760,16745,-10615
359,-12979,1528,-3690,-13945,-148248,-23943,16237,-10313
359,-12482,51,-3066,-13988,-118079,-17698,14817,-9396
359,-10782,-8810,-2898,-17460,49332,15884,13891,-9913
359,-10158,-7996,-2792,-16124,39674,13322,12886,-8898
359,-6198,-6665,-2064,-14748,14396,7736,11652,-7220
408,-7400,3182,-3159,-9854,-134594,-22303,11664,-7156
408,-7006,395,-2499,-9848,-85391,-12687,10619,-6609
408,-8852,-9911,2141,-12122,84559,20709,8399,-5594
408,-6273,-12295,3192,-11818,131973,28332,8027,-5254
408,-5173,-8643,2565,-10565,80463,17474,8235,-5357
408,-7349,-4966,-2748,-10827,17054,7589,8393,-5763
408,-6767,-4540,-2472,-9940,11963,6063,7925,-5205
408,-6001,4639,-1475,-5964,-136750,-23989,7724,-4865
408,-4104,3073,-868,-5824,-108681,-18578,6931,-4438
408,-4750,-4066,-2007,-8474,29151,9019,6520,-4799
456,-4613,3841,-2139,-4399,-98549,-17629,6743,-4174
456,-4905,-526,-1755,-6501,-27991,-1732,5498,-3682
456,-4129,-4184,-1257,-6570,25467,7369,4981,-3211
456,-1718,-3705,-1232,-6335,20499,6441,4798,-3341
456,-3647,-2090,-1358,-5573,-2301,1804,4682,-3300
456,-2220,668,-658,-4271,-49759,-6375,3683,-2585
456,-5129,-7318,-236,-7423,84970,20443,2879,-2087
456,-3924,-3778,195,-4594,27793,7011,3585,-2216
456,-3316,-3236,-76,-4363,22333,5788,3491,-2099
456,-250,-983,-2224,-4394,-9939,-274,3399,-2230
503,-484,6096,-2419,-1660,-124714,-22726,3397,-2144
503,-2605,3721,-1675,-2242,-85893,-14951,2864,-1844
503,-792,-4343,-664,-4045,50551,11705,2769,-1987
503,-3056,-3527,-681,-3463,39553,9228,2609,-1907
503,307,-2575,-940,-3470,23574,5978,2362,-1850
503,47,-1742,-1097,-2473,11718,3284,2203,-1814
503,-103,-300,-1160,-1432,-8930,-893,2276,-1701
503,-2516,-4613,-1181,-3830,72962,15718,1434,-982
503,-2519,-2363,-692,-2908,41081,8918,1664,-1028
503,-1696,-1817,-833,-1892,14680,3920,1916,-1816
552,-2656,6213,-836,844,-115253,-22722,2523,-749
552,-1184,449,-522,-1646,-22016,-2180,1401,-353
552,-1011,3912,368,1202,-78786,-15422,1404,-1734
552,-17,4085,168,1457,-79744,-15766,1389,-1955
552,-756,-4217,7334,-2635,53994,11513,1006,352
552,-2471,-3806,7089,-2306,48249,10265,901,481
552,-1822,-2700,5689,-1880,31461,6815,1011,659
552,-1846,-1500,-1911,-1958,20778,5129,934,-376
552,340,-1068,-1813,-2048,15765,4157,930,-211
552,227,-4144,-854,-2324,66118,13470,284,-353
601,964,2921,-1878,-333,-50632,-8557,669,-966
601,-1621,-2562,-1136,-2130,41647,9771,18,-785
601,-864,-1020,-1445,-1200,17187,4188,571,-533
601,1426,-418,-1509,-859,6798,2017,683,-561
601,-810,5251,-1112,1386,-87809,-17224,463,-397
601,-677,4896,-1270,1106,-83877,-16394,442,-288
601,-299,5027,-1628,1457,-89195,-17687,372,-185
601,1537,-3000,1415,-1648,48941,10106,370,-372
601,-655,-2383,1214,-1487,40054,8176,549,-461
601,-1507,-1051,-1140,-999,21104,4347,-15,-109
651,1641,5332,1247,1763,-85035,-16612,172,-366
651,-160,3945,2034,1126,-60707,-12184,122,-244
651,-1105,-4410,-411,-2099,70302,14389,-75,-296
651,-773,-4007,-586,-1940,60578,12693,149,-376
651,1397,-2702,-780,-1316,39605,8438,240,-441
651,331,-1489,-890,-510,26059,5789,181,-550
651,2285,-1193,-785,-640,22347,4919,305,-475
651,1379,3755,-386,1598,-63162,-12854,-312,468
651,634,3927,22,1985,-65927,-13897,-250,495
651,-549,-1678,-1032,-940,27000,6282,-12,77
699,1309,5019,-2078,801,-81491,-16507,561,-611
699,1180,4271,-1305,102,-72289,-13068,204,-685
699,975,-1628,151,-878,29787,6211,-335,15
699,-1600,-1162,-127,-565,22261,4652,-281,54
699,-1150,759,-311,389,-10645,-2282,-57,-10
699,882,-3955,-1607,-1765,65875,13665,-638,132
699,-1761,-3080,-1478,-1602,53164,11107,-509,253
699,471,-1332,-2889,-869,23258,5155,-378,195
699,-31,-525,-3048,48,10293,2049,-200,285
699,-1415,4886,437,2101,-75907,-15239,-274,118
748,-772,4039,-219,1481,-66340,-13380,79,-111
748,1423,-1876,445,-942,28491,6731,-698,105
748,1199,-1492,1556,-796,24967,4692,80,192
748,-1526,4568,389,2078,-72819,-15969,666,236
748,-1498,4344,-1580,825,-75258,-13314,134,451
748,-4360,-1260,82,-535,25212,5634,-243,1061
748,-3735,278,-7,245,-1601,-309,-125,992
748,176,-3150,-1757,-2062,62584,12953,-584,-354
748,2094,-2403,-528,-1409,44273,8911,-435,-382
748,501,-1419,274,-949,26209,6149,-238,-125
797,983,7354,1108,2860,-119791,-24449,575,-246
797,1225,7752,796,2621,-128970,-25210,234,-202
797,1389,6909,955,2827,-114584,-22682,-711,-299
797,1491,-1348,1464,-233,18530,4891,-1376,-304
797,1202,-7078,1569,-2019,114116,23423,-1438,-539
797,-2038,-2516,-440,-1191,42409,9101,-317,324
797,-1205,-1685,-709,-1083,31069,6707,-152,172
797,1312,-1446,-549,-240,27033,5820,-86,9
797,1201,1280,-635,1213,-17011,-4027,251,-55
797,1008,-2380,-27,-566,37816,7895,-475,105
846,-1575,3582,353,967,-59641,-11215,-311,-67
846,-901,-2184,695,-1380,38286,8527,-972,167
846,-1658,-1641,207,-768,29069,5969,-369,-488
846,-700,-1065,77,-391,22673,4504,-360,-478
846,1940,446,-199,418,-937,-437,-142,-489
846,-1635,-1851,1620,-153,31714,7486,-1347,285
846,-1305,-6495,1644,-966,111546,22207,-1411,252
846,590,-1191,-96,-570,21644,4367,-169,255
846,-1551,-1050,-233,-519,19907,4044,-215,292
846,1237,4770,1451,2090,-61357,-13726,597,15
894,973,6052,173,2116,-93632,-18557,-66,110
894,2698,4616,430,1500,-71086,-13963,-191,342
894,152,-2071,745,-1391,33714,6444,-372,295
894,-1783,-1952,682,-557,30514,5529,-398,275
894,6,-860,366,-506,12747,1868,-285,279
894,510,-483,267,-856,21054,4737,112,-157
894,-983,0,186,-757,16644,3466,150,-195
894,283,-4833,753,-2723,77697,15527,-833,296
894,-1306,-3054,396,-2459,50870,10117,-465,95
894,1066,-283,15,-542,11975,2242,-182,-201
943,-1815,609,-75,-633,-11405,-1196,-403,-7
943,-1595,-1403,450,-755,22572,4691,-610,94
943,-890,5625,3240,2946,-79808,-17149,-266,-61
943,830,4756,2719,2466,-68194,-14602,-347,-36
943,-694,4706,1713,2447,-72522,-15250,-291,21
943,1211,-2114,-34,-409,34368,6735,-414,98
943,899,-1716,-112,338,28459,5469,-346,52
943,413,-2099,1151,-686,18561,3798,-118,211
943,321,-1171,1463,-267,6678,1206,-70,282
943,984,-2228,-666,-1433,46036,9435,-379,205
991,782,6300,-1115,2922,-100393,-21305,304,5
991,393,1431,-312,485,-24164,-3996,-457,160
991,-166,-1220,-354,-297,18669,3744,-309,257
991,-2094,-953,-408,-306,15633,3032,-270,174
991,-2147,373,-698,468,-5170,-1419,-235,116
991,1701,5361,-252,2239,-79595,-16095,-61,-290
991,940,5268,-212,2299,-79367,-16108,1,-314
991,-944,-1542,-1667,-557,38908,8237,-401,80
991,1693,-491,-1415,-10,20197,4022,-232,146
991,1436,-1291,292,-1109,24670,6156,367,-297
1039,-1444,-540,603,1864,4168,166,-407,907
1039,542,8726,-176,4189,-142901,-29045,602,-266
1039,-2054,-4276,-1333,-2014,69081,14285,-805,925
1039,366,-3406,-2529,-1697,55143,11485,-685,639
1039,187,-1562,718,526,28394,5803,-176,52
1039,-1722,-1310,369,462,25050,5039,-170,-28
1039,340,-446,18,615,11345,2073,-166,7
1039,-875,5626,90,2947,-88057,-17514,-233,31
1039,1228,4963,199,2419,-76559,-15418,-352,108
1039,646,-1567,-232,-1102,33905,7433,-482,146
1088,1460,2938,-190,1265,-38093,-6610,-484,59
1088,-1047,-1958,74,-928,44833,9911,-848,101
1088,19,-715,267,231,25642,5439,-185,722
1088,-1711,-497,239,-108,19377,4445,-106,547
1088,558,800,102,427,-5180,-535,45,380
1088,395,-4385,886,-152,73749,13720,-1004,509
1088,-1497,-3079,676,214,53193,9754,-794,163
1088,-547,-1133,1786,132,21425,4416,-291,-141
1088,-177,-871,1522,343,17834,3459,-288,-92
1088,1715,5425,2244,3948,-80757,-16989,8,-391
1136,1309,5320,1401,3667,-74774,-17298,-336,291
1136,963,1726,993,1634,-19477,-4531,-834,496
1136,858,-872,-822,-502,25514,5188,-427,435
1136,-1688,-657,-1009,-485,22969,4789,-372,474
1136,621,-614,-855,-94,16832,3772,-502,306
1136,-1531,-200,-701,263,9548,2093,-388,310
1136,266,-6991,2023,-1298,112779,22334,-1948,1470
1136,-318,-4920,1219,-699,83249,15925,-1178,1094
1136,-2034,-2217,561,12,41192,7717,-625,667
1136,-1562,-67,-894,42,9425,2135,-342,15
1185,-1968,342,-391,821,-1238,491,-761,465
1185,-1768,-362,-481,523,12222,1995,-635,488
1185,737,11942,-1332,5016,-181284,-37895,824,-1528
1185,1657,12813,-745,4750,-199734,-40324,592,-1516
1185,1502,-2017,413,-17,46032,9010,-522,551
1185,552,-1503,19,71,32370,6280,-432,386
1185,1192,-887,-490,-2,25604,5286,-241,254
1185,591,-644,-479,202,21483,4472,-255,380
1185,-1711,559,-965,640,-1518,-215,-107,375
1185,1667,-2316,-140,-1056,46262,9196,-358,134
1234,-389,2562,-892,1199,-31710,-5153,-209,-38
1234,1550,-1976,-516,-340,42058,9120,-534,167
1234,-826,-1100,-129,841,17483,3023,-268,419
1234,1697,-459,-309,871,6783,991,-189,331
1234,-1090,7595,-813,3773,-116008,-24153,-112,106
1234,-1205,11981,-1060,5608,-187883,-39440,334,-18
1234,-1129,-2069,-946,-1084,45774,9696,-357,82
1234,-639,-1463,-1053,-707,36163,7636,-321,123
1234,-345,-16,-1075,154,12446,2511,-259,195
1234,4,-1267,-1275,120,28592,6012,-319,162
1282,-137,8533,-718,3792,-131979,-27413,383,-76
1282,1290,5911,-285,2214,-91886,-18740,-64,56
1282,1913,-3046,-1289,-1319,68170,13785,-440,109
1282,1863,-2233,-896,-671,48532,9609,-243,111
1282,2720,137,32,-704,36858,7671,-345,39
1282,2295,538,-163,-506,30098,6229,-249,171
1282,1942,3589,2555,3099,-63638,-14116,-414,181
1282,1318,3803,1809,2417,-58839,-12195,-444,59
1282,-1034,-2439,2111,-367,48466,10315,-1161,352
1282,1674,-905,-287,-926,31407,6883,-394,100
1331,1733,4889,-1203,1755,-73168,-14936,-307,298
1331,567,-2116,-365,-896,35633,7813,-1076,617
1331,440,2081,1170,3020,-90190,-23927,-735,457
1331,886,2092,1058,2367,-75476,-21625,-721,479
1331,995,-4059,-259,-258,60274,13078,-187,-21
1331,364,-3944,475,291,51947,11069,-260,159
1331,-1109,-2062,982,150,39989,8072,-178,445
1331,-1104,-2027,1028,345,37337,7322,-265,517
1331,-1026,-1217,725,16,25166,4879,-259,532
1331,1560,11617,940,3779,-166363,-34644,712,-815
1380,961,-2174,1556,-664,46912,9328,-891,1605
1380,-1242,-4484,1790,-1270,83438,16134,-845,1521
1380,623,-2718,2383,-126,46184,7824,-629,524
1380,670,-2104,2084,-108,40394,6767,-475,275
1380,1071,5641,1103,1953,-73882,-17117,-39,553
1380,-1143,4833,1359,2040,-65597,-15598,-222,637
1380,1396,-3281,1933,16,78914,13363,-830,426
1380,-760,-2983,1935,349,70169,11489,-712,418
1380,-870,-1368,1592,987,43794,5991,-517,316
1380,1024,-2003,1112,1264,48240,6275,-752,655
1429,1613,8663,1804,3500,-108346,-27545,153,303
1429,154,6573,1466,2384,-71927,-18907,-254,384
1429,1643,-5063,4699,-800,146458,25626,-1359,921
1429,1852,-3698,3957,-2411,119734,20280,-895,694
1429,-270,-3393,1854,4772,65920,4922,-1495,1077
1429,-1551,-2535,1510,4106,55382,1712,-1288,1023
1429,-1456,2252,2716,3979,-46665,-15803,-386,453
1429,734,1479,3456,3704,-35973,-13794,-486,427
1429,596,2033,4599,3980,-47129,-17000,-499,480
1429,973,-3653,2889,-2701,80945,3714,-1538,732
1478,-810,-1136,-193,-704,58247,8316,-638,466
1478,1128,-3271,190,55,83683,12140,-1036,647
1478,-1951,-1589,1443,-418,77929,6817,-1296,2381
1478,-1605,-900,891,-1665,70421,6144,-1152,1897
1478,-2182,-5575,2163,-4529,153774,21302,-1562,1143
1478,-1268,-4403,1728,-3957,133552,17318,-1169,866
1478,901,-2971,1455,-3355,110661,12436,-789,601
1478,1847,269,1914,2036,109016,3401,-525,366
1478,-222,283,1690,1531,100742,2802,-266,277
1478,-1240,8455,465,1157,46342,-18574,-292,247
1525,-741,11464,-4061,3114,39545,-17363,2,487
1525,-1084,9308,-2924,2893,53927,-12030,-188,813
1525,1197,-2099,3082,-114,170990,7928,-501,1426
1525,652,-2629,3645,44,155144,5260,-448,1378
1525,-1459,604,2174,-3013,176510,3395,11,1548
1525,1294,623,1379,-3931,165209,2714,272,1008
1525,90,1670,3513,-16,166468,-6130,-1053,1619
1525,-2148,-5887,4188,-2126,249689,18558,-1872,1842
1525,-2175,-4558,3484,-1605,227797,14805,-1471,1662
1525,-1179,1419,1444,-2169,202067,3668,-84,981
1574,519,10864,167,-498,103969,-20983,880,756
1574,1716,4092,983,-2657,171606,925,-251,1101
1574,-1106,7809,2085,1541,161258,-12091,-688,1220
1574,1098,11881,2209,3312,97372,-27882,-15,1076
1574,2354,3116,1995,-1769,242251,11796,-1290,1754
1574,276,4218,1088,-1335,224876,9825,-1017,892
1574,1092,5365,1787,-1081,231151,8077,-34,953
1574,3087,5092,1645,-1556,217998,7703,-32,833
1574,3039,5623,1517,-1113,200664,5687,95,973
1574,-1596,5168,979,-1011,239513,10464,-310,1250
1623,-1415,9718,962,-919,178027,-4635,-481,1304
1623,-1513,4521,1498,-1880,222732,11086,-895,1455
1623,2225,7147,4821,116,224037,-1774,-1370,741
1623,4871,8009,4252,-394,202000,-3931,-945,603
1623,1138,10820,3237,140,173807,-7189,-1767,8644
1623,1082,16743,1982,2479,100334,-28019,-390,6237
1623,694,6109,969,-2567,226067,10415,-18,-2500
1623,1054,6111,563,-2564,211777,9894,19,-2439
1623,639,6279,496,-1706,194399,7711,-196,-1487
1623,-421,6409,1435,-1406,200472,10540,-1895,1836
1672,-2349,15952,350,3276,92876,-25885,415,3839
1672,-68,14175,408,2793,95515,-21121,649,3082
1672,-750,1704,3576,-2255,231044,19299,-1823,5420
1672,-2522,2778,2919,-2178,212244,16320,-1681,3729
1672,3487,7691,319,1237,193020,6274,1098,-4297
1672,2673,7005,767,986,176588,5027,1203,-4508
1672,-1047,10876,1287,-1559,135468,-7491,-1057,770
1672,1258,13456,-41,-5009,104253,-13560,-367,347
1672,909,8859,-138,-7233,139690,2944,-838,371
1672,360,4377,1458,-2487,175429,10982,-1719,1283
1721,974,5314,2083,-84,137258,1075,-543,448
1721,-381,1539,2033,-1012,170217,13548,-933,420
1721,-44,11780,901,0,76638,-17279,961,-1123
1721,127,9420,120,-1242,91773,-10505,426,281
1721,-1321,1437,1223,-3101,180567,16143,-1691,439
1721,762,2281,1252,-1753,163428,12628,-1650,1082
1721,-1257,2675,1602,-152,161363,10538,-2145,-1871
1721,-432,2493,1808,190,150177,8808,-2326,-1038
1721,-2162,7942,2396,1159,108252,-7022,-2763,9460
1721,-1834,8896,1976,-407,89994,-9538,-2495,7167
1770,2484,1973,1368,-4791,157321,18057,-433,-2560
1770,2349,2670,2385,-98,146731,11184,-717,182
1770,878,2725,1606,13,138895,10384,-884,-322
1770,2131,3113,861,-462,123173,6979,-916,-195
1770,-1575,9630,2707,-30,53979,-16133,-375,1545
1770,-857,7127,3164,-1147,68314,-9533,-525,1424
1770,464,-120,2559,-2010,146656,17148,-1284,1883
1770,-443,155,3256,-822,133643,14485,-1206,1564
1770,911,38,2641,-5464,125506,11515,-1526,1909
1770,-943,23,2640,-5319,118177,10754,-1396,1857
1866,-1480,1522,1245,-3876,78051,4569,-1213,492
1866,-3427,-2654,2537,-5745,94551,12677,-1720,4654
1866,-3219,-2416,2588,-4761,87427,10782,-1403,4590
1866,-2676,-620,2460,-2734,71645,5950,-949,3627
1866,1424,-3296,1857,-9422,111232,22602,-3355,-2383
1866,355,-2722,2453,-6657,95315,16770,-3038,-1238
1866,-2802,269,2604,-4554,77847,9003,266,-3408
1866,214,771,2242,-4373,71731,8134,159,-4282
1866,-2145,3428,862,-3672,66930,4575,-1618,619
1866,302,6245,1623,-4611,35876,-5494,-751,-2
1924,51,7182,806,-9729,13182,-10655,-136,-97
1924,469,924,2594,-7470,74578,13910,-134,323
1924,502,-171,2996,-6713,69059,11646,-495,658
1924,-1678,390,5301,-9957,62692,9349,-980,3147
1924,-3909,1439,5840,-8528,57712,7194,-751,3421
1924,-3206,3434,6273,-6738,42928,2009,-227,4861
1924,-3007,-14577,11885,-10073,96773,18779,-3839,-45
1924,-860,-9769,11871,-8870,86012,14442,-2237,-1265
1924,-1318,2369,-1907,-16158,49666,5362,-206,-575
1924,786,3735,-2652,-15277,44726,3202,411,-1770
1972,-1460,7658,8779,-20301,-36453,-26930,-1466,4992
1972,741,6981,8426,-19680,-24595,-21282,-2363,4793
1972,-637,6064,7176,-18852,-11511,-16108,-2243,3473
1972,-20,-2024,2406,-30137,66984,13735,-121,-1023
1972,450,-910,1632,-29676,59388,12022,122,-1190
1972,-711,-774,-3112,-43001,49655,13162,-487,11075
1972,2097,-917,-1884,-43429,45539,12592,-264,8637
1972,2134,-830,-963,-43598,37109,9721,-152,5723
1972,1242,7539,1348,-46352,-10220,-21752,-425,-2910
1972,3032,379,3193,-45718,43979,2896,-1232,-2903
2021,1545,1100,986,-64018,25240,-3962,-1368,-1736
2021,-590,-1848,1396,-61562,51381,7767,-927,-2047
2021,1881,4028,32,-57294,3226,-6129,613,-2215
2021,1215,1650,160,-72189,-12578,-12663,1665,-8792
2021,2006,-1832,-648,-67825,-7488,-11628,1556,-7821
2021,2880,3267,-316,-85350,57918,13606,-726,-2274
2021,660,2917,-1540,-80657,54508,12265,-601,-2014
2021,479,2908,-2203,-76235,46889,9296,-144,-1636
2021,23,1548,3693,-91205,40510,9236,1046,6778
2021,706,2824,3401,-86144,33331,5950,768,5806
2070,-572,-3270,2114,-113084,54629,10246,-2416,8984
2070,-328,-782,1707,-106902,35461,3501,-1398,8764
2070,2292,7753,-656,-98502,-28159,-16209,175,6452
2070,-911,-1717,1381,-108860,36720,6543,917,-3908
2070,-477,-881,1311,-103579,33725,4736,448,-4581
2070,82,9543,8757,-115780,-16669,-13550,-271,8533
2070,2126,8502,8903,-109330,-11302,-11383,316,4558
2070,2330,8945,6391,-103163,-13067,-10810,1613,-998
2070,4256,-5712,3860,-118790,48180,10369,-983,-5086
2070,4290,-4431,3987,-112245,43178,9136,-904,-5346
2119,6045,17932,-7155,-122455,-38010,-26827,480,-3565
2119,4861,13374,-6770,-116543,-32744,-22512,-430,-1450
2119,2253,8310,-5676,-113358,-14752,-13862,-546,-597
2119,2659,-6904,5811,-128015,75999,21530,-1274,661
2119,-295,-5598,5689,-121354,60648,16513,-395,-1324
2119,2071,2721,-1433,-128020,43928,7152,-2358,-2171
2119,4379,2927,-494,-120974,39563,4624,-2946,-818
2119,4641,3530,580,-114127,25755,-1412,-3489,693
2119,591,1907,793,-128113,-11668,-8472,-414,730
2119,831,2642,535,-121095,-15375,-9958,-454,533
2168,782,5251,-2637,-133383,7371,1575,-400,1239
2168,159,376,-2015,-128106,46518,14735,-118,2605
2168,1063,2171,698,-119504,19573,453,537,1756
2168,1508,-2767,166,-124489,34878,6434,-821,-2406
2168,1751,-2114,566,-117760,26721,3119,-511,-2021
2168,1731,-2085,1109,-125722,60348,19541,-2113,4544
2168,3834,-1138,832,-119312,50733,16427,-1740,2476
2168,1534,36,462,-113633,32907,9470,-1644,1152
2168,3352,-4386,8133,-115649,29450,5704,1148,-2352
2168,3331,-2503,4948,-109875,20496,4719,1766,94
2215,3257,837,3568,-114253,-32556,-12940,3077,-4546
2215,88,-3833,5183,-107497,-14578,-8479,1773,-3192
2215,388,-3953,6010,-100433,-26154,-15530,575,-2491
2215,5607,1179,7969,-103301,31710,4463,-705,1435
2215,5439,1711,880,-96597,29133,3285,-464,-1544
2215,3904,-4972,1561,-103494,27542,6624,-2592,-2963
2215,4169,-2537,137,-98556,20780,4317,-2733,-1231
2215,3106,-123,1130,-99481,55279,15753,-1592,-140
2215,4973,360,1131,-93603,45379,12299,-1347,-118
2215,3513,682,1158,-88472,29326,6515,-841,122
2264,6015,5516,7045,-96005,-18567,-8968,-979,-1716
2264,2921,1279,4709,-93974,25425,7697,-1297,-5876
2264,2862,5074,744,-86524,5576,-2612,-581,-7791
2264,3860,3807,-3958,-81839,-19717,-14967,-696,-530
2264,5110,9496,-2827,-73290,-75343,-38515,-153,-729
2264,1795,-10119,4566,-80765,38701,8760,-1271,3055
2264,3469,-11204,6178,-77818,33106,5607,-1755,3973
2264,1599,-1956,-515,-80425,26181,14891,890,-1323
2264,4783,-396,-1892,-77732,22238,14518,1769,-1616
2264,5551,1187,-2282,-73335,11044,5708,1724,-1753
2313,5888,-1338,14521,-70226,26695,5764,-1248,565
2313,5420,-1046,10752,-64829,34070,6715,-1572,1742
2313,3774,7207,5326,-57098,-24619,-18479,-1064,1885
2313,2640,-4006,1634,-59907,22359,-4162,-2273,-2206
2313,3361,-2499,752,-57849,18725,-2896,-1530,-2637
2313,7904,11423,-31,-58796,-32110,-18013,137,961
2313,7293,16999,-2107,-53018,-79440,-37665,1195,3062
2313,3898,14987,-3579,-49811,-72105,-34184,1917,3707
2313,2983,2810,-346,-56498,33683,12281,-905,-916
2313,2406,1606,466,-52275,23102,7552,-932,-576
2362,6417,5808,-7354,-51842,-31033,-16804,-416,-1634
2362,6314,8172,-6289,-48303,-44262,-21191,-493,-1744
2362,5710,6223,-4299,-46077,-26240,-13394,-666,-1758
2362,3318,-4600,-479,-49238,54229,19886,-1296,-1053
2362,5039,-3598,-985,-45397,45387,15938,-1002,-866
2362,7120,-1151,8094,-47882,34172,14671,-596,-3231
2362,4076,-839,4743,-45180,31023,17041,-1450,-1039
2362,3165,1505,261,-41825,17816,12710,-1467,1030
2362,2544,-1366,1416,-37981,-5354,-6774,-1545,-4641
2362,1797,-8167,1901,-38837,47809,15153,-2174,-2954
2411,4854,2166,408,-38169,-22070,-10743,175,-3826
2411,1995,-5542,1869,-38437,27293,9429,-552,-4384
2411,3654,-5259,1299,-36148,22241,5033,-552,-4758
2411,6277,16713,-16631,-26907,-19297,-11537,352,-8802
2411,5367,13410,-14912,-24714,-17255,-11715,-167,-7794
2411,3528,-4202,970,-31612,38966,14343,-2229,8811
2411,3492,-3840,1067,-29464,36140,12965,-2249,8892
2411,3031,-2647,1144,-26907,25689,7946,-2107,7632
2411,4275,-1486,82,-26168,24783,7562,-213,753
2411,3146,170,-1980,-24578,21294,6539,146,-45
2460,2929,10444,1447,-23540,-28667,-15483,-1768,2986
2460,5479,6355,1954,-25040,3577,1215,-1517,2797
2460,5136,2134,3436,-24787,27854,10382,-649,1799
2460,4160,-1634,-2500,-25464,21419,8140,-370,1180
2460,3923,-1774,-1958,-23926,14833,2987,-661,703
2460,1259,1429,2534,-17843,-26730,-15801,-1117,-2809
2460,3210,2219,1992,-17513,-23030,-11794,-1034,-3323
2460,1793,4074,1624,-16251,-30628,-12267,-891,-3264
2460,2914,477,-3774,-18432,34031,10173,-1543,-3501
2460,2489,85,-2571,-16483,26939,7384,-1313,-3008
2509,5226,12801,5418,-16822,-52635,-20064,-185,-1679
2509,5410,12267,7009,-16302,-34401,-14099,-809,494
2509,5477,12492,5658,-15023,-23636,-11751,-1111,4133
2509,304,-14876,682,-15736,63748,22358,-1626,-729
2509,1593,-13656,1284,-14151,52396,16579,-1579,1922
2509,1756,-3601,2321,-12943,25182,7626,-1325,-5868
2509,2865,-2371,892,-12714,23380,7252,-1406,-4692
2509,5263,-196,-670,-12652,17208,5027,-852,-3968
2509,633,4645,471,-13349,-25522,-13483,-2514,6815
2509,593,3413,1626,-13969,-23101,-11776,-1956,8732
2558,1764,1745,-2841,-10738,18896,3942,-784,-3378
2558,729,-1017,-2905,-10263,29742,6566,-1396,-1208
2558,1104,4299,-3279,-6103,-22338,-16845,-953,1410
2558,2974,307,-12496,-8679,19505,4509,-2476,-3950
2558,4355,-6,-7693,-7977,16504,3668,-2265,-3154
2558,4371,-2001,-1986,-6567,44101,15069,-1628,-2473
2558,4541,-1827,-2973,-6298,33984,10688,-1613,-2214
2558,5603,-397,5115,-7489,20939,10786,-73,-9666
2558,5256,-1001,5391,-5643,18713,8590,-104,-7976
2558,2895,-100,3958,-5298,6772,3005,471,-6538
2606,3273,4349,1716,-993,-24991,-19412,-1098,1128
2606,2925,4243,1479,-2033,-24292,-18402,-913,1815
2606,296,-989,-6783,-6033,19710,8227,-1725,1041
2606,-24,-1426,-2312,-5169,17854,6762,-1446,954
2606,-8,-1362,3408,-4308,8003,1958,-1298,1097
2606,3469,413,4305,-5601,13406,5428,-2257,4510
2606,2545,136,1429,-5092,9930,3150,-2179,2750
2606,-16,-5849,270,-3449,60325,21602,-5942,20122
2606,2384,-2470,-488,-4240,45430,16233,-4651,15952
2606,-261,-874,365,-2158,12281,-55,-1872,1820
2655,2184,3112,1027,-1547,-13379,-1817,-1988,-2427
2655,2765,-774,1370,-3513,20152,12613,-1319,-2904
2655,-414,13049,-2821,4104,-83255,-41202,-1959,-821
2655,-602,9824,-2442,3177,-65460,-33022,-2502,-379
2655,1913,5014,-2574,1862,-27845,-17099,-2713,-154
2655,1683,-79,-64,-962,27572,11765,-1962,2982
2655,-206,-170,-402,-3123,22693,15202,-1097,1809
2655,746,-772,-4852,-1630,19634,7925,-407,-5122
2655,-1858,-251,-6212,-3003,17551,9724,-546,-5520
2655,-2596,-6850,1508,1778,27226,7396,-179,-9768
2704,1245,7467,2692,3153,-32729,-17211,707,-3463
2704,-696,-1191,3697,-412,16444,5499,-447,-2368
2704,-146,-2800,3595,-787,18396,5791,-396,-2128
2704,2084,-1643,-1374,2837,19329,5630,-1414,-139
2704,1378,-1915,-393,2731,16097,4024,-1390,275
2704,1513,10058,7597,3615,-60758,-33860,-644,-5669
2704,-502,6692,6484,1444,-25244,-19414,-406,-5573
2704,-348,-1471,859,-2127,23679,9861,-1840,1329
2704,-2468,-2588,2823,-828,21719,7366,-1776,1720
2704,-2309,-2000,4312,-75,10992,2176,-1478,2100
2752,316,10751,1467,4368,-51804,-32157,1192,-4013
2752,2029,8654,-2837,4531,-42336,-28127,582,-2381
2752,2111,7481,-566,2079,41439,14108,-2895,11794
2752,598,6998,-5274,-315,33605,12578,-3031,11442
2752,1741,7446,-10237,-978,18814,7386,-2718,9611
2752,1506,-6578,7224,551,21273,8397,-1018,-2688
2752,979,-5492,6340,1752,17771,5741,-1024,-2622
2752,-520,3755,1212,5312,-29755,-15891,-776,789
2752,-682,-947,1301,3104,7912,1711,-1657,1425
2752,614,-1269,5134,1581,21534,8982,-815,-5765
2801,-1770,-3540,1273,4485,-3352,-5739,-3130,8804
2801,-3272,-4442,1301,2571,25223,6937,-3073,6517
2801,1213,7048,-465,5603,-45940,-18771,-1215,677
2801,-1228,5068,-796,2091,-27154,-11124,-1712,-662
2801,176,5316,557,2070,-26003,-12729,-1855,-2272
2801,-228,-2470,-6247,4647,34249,6350,-5240,519
2801,-662,-2606,-4995,4603,29298,7331,-4440,-2180
2801,759,3126,-200,3586,22951,10103,-388,757
2801,1016,5825,-1579,2519,19126,9411,490,-1522
2801,-1903,2550,-1691,5865,-22736,-14299,-3633,998
2850,-661,1792,2202,6754,-7036,-4353,-1174,330
2850,701,-1390,2427,2048,23562,9586,-209,-4714
2850,-1007,6178,1654,4073,-31331,-14598,668,-4581
2850,-3137,-2553,-350,1679,19517,10722,-251,755
2850,-1452,-842,-862,1294,13621,8131,-99,1259
2850,-3305,3279,-1501,4973,-25078,-8298,-1830,4397
2850,-2665,2590,-613,4331,-19499,-9525,-2012,5622
2850,-1239,-5449,2920,4910,32972,11746,-536,-2926
2850,-725,-2969,1912,5262,25945,8266,278,-4620
2850,-2914,-510,1793,5790,15453,3239,366,-5382
2899,846,8810,-1255,6891,-43935,-21190,-145,-3607
2899,336,8360,-1966,8785,-41285,-20450,-898,-3030
2899,-2048,5946,-1486,7955,-24983,-13283,-1141,-2145
2899,1578,-4972,4590,3975,58590,21604,-1175,-3793
2899,699,-5773,3333,3611,48187,17197,-1625,-2485
2899,349,-1998,-1733,3670,23595,11279,-832,-3353
2899,-554,-2365,-93,3671,18360,8361,-1178,-3461
2899,-410,2366,770,9281,-23318,-6536,-379,92
2899,-2388,3071,1409,5899,-18416,-4218,-1122,-278
2899,-1742,4845,1469,4761,-24426,-11250,-2184,-474
2948,-2419,1725,5153,7995,-6830,-5010,-1257,94
2948,-2398,-3544,5308,5983,32648,11278,-2108,288
2948,-1846,-1731,3953,8017,13144,287,-2043,-267
2948,125,3665,741,3519,23832,10201,-1821,-2553
2948,1543,762,2673,3708,22186,8306,-1244,-3945
2948,-4011,-5022,-3891,4911,42966,14238,-3163,7295
2948,-2893,-3561,-4196,4828,33446,10966,-1451,5062
2948,-301,-3944,2744,6962,19382,4499,-4241,1726
2948,-104,-2921,2193,6453,18050,9702,-3043,1160
2948,-1415,-607,1213,4633,9211,9985,-1581,823
2995,820,6206,5391,6354,-36569,-19622,-2738,5529
2995,929,4723,5507,5725,-24773,-14305,-3622,6620
2995,133,4909,534,5538,21224,10062,-2012,3611
2995,-1593,3769,1980,4739,21424,13623,-1471,4157
2995,-1199,2867,1951,5105,16115,9898,-765,3317
2995,-1009,-475,-7884,7014,14178,2202,-546,-4097
2995,-3383,-1256,-8148,6391,11709,1768,-1303,-2861
2995,-1128,-8835,612,3339,66064,20201,-2351,-3125
2995,-2992,-5578,2561,3783,47690,12211,-1294,-2539
2995,-1011,4552,-1462,3933,10940,5766,428,5623
3043,670,-1587,7780,11687,-41607,-22987,-1026,-5618
3043,623,-2605,6177,8882,-13433,-9628,-1761,-5797
3043,-1156,4597,-799,6651,-23247,-16799,-1620,-1324
3043,-3078,3559,-779,5260,-19280,-14777,-1420,-799
3043,-2955,4340,-977,5063,-25665,-17041,-1167,-658
3043,486,-511,700,7500,23697,3098,-1131,-1398
3043,-1513,-433,739,7533,19144,2777,-1167,-1336
3043,-2197,1426,-2364,6794,17097,5376,-1657,1728
3043,-1453,2957,-1519,5812,9652,2250,-1347,1493
3043,-1210,-3728,-346,4714,30923,7170,-3145,3650
3091,2227,8018,-1090,6607,-32654,-16771,-650,-4108
3091,738,3714,-877,6153,-10737,-7570,-2266,3219
3091,-2986,-7275,5939,7361,16743,4616,-379,-3665
3091,-677,-7555,4774,6698,13854,3127,4,-2752
3091,-1522,3985,-230,9041,-26026,-13089,-1385,-726
3091,483,3191,-1711,5574,-23050,-11570,-1137,-354
3091,445,2750,-1620,4224,-24157,-12185,-775,-298
3091,1133,-1086,3888,4944,26381,11067,-236,-2637
3091,-534,-655,8866,6556,16665,5906,160,-2660
3091,895,-2945,2005,3931,17562,8430,336,-9628
3140,-1957,9195,-1802,9572,-52735,-25821,-1225,-1825
3140,-995,6865,-904,7825,-32933,-16074,-1714,-1735
3140,-1768,-6856,8506,4446,42990,16203,-3859,-8
3140,33,-6410,9060,4285,29405,10116,-3160,850
3140,1886,1974,-1073,8940,21061,6913,-2451,271
3140,-945,595,637,8625,17167,5354,-2002,-1448
3140,1288,5685,-451,8894,-22605,-11669,302,-1856
3140,1265,4724,1600,7959,-19777,-10692,127,-831
3140,504,4846,2243,7821,-20646,-11634,-554,2583
3140,743,-3454,-1901,5747,25233,11979,-265,-3205
3188,-2126,2167,-2647,4690,-15732,-14646,-882,676
3188,378,-855,-469,7878,23356,8812,-1154,2736
3188,-1109,634,-2049,7877,20196,7355,-1666,3970
3188,715,2990,-3264,7064,7848,2688,-1360,3775
3188,-2029,-4110,3938,4526,44579,17924,454,-6514
3188,-537,-2160,2992,4882,32778,12537,171,-7698
3188,-2962,3006,-1073,6138,17209,6003,-3075,6366
3188,-289,1727,-2424,6251,13891,5288,-2616,3005
3188,-4425,6662,-349,9403,-37919,-18484,-999,-593
3188,-3622,5226,-173,8707,-26852,-14267,-1655,-818
3245,-1421,5472,454,8976,-28992,-16402,-1690,-319
3245,-1541,-3712,7447,6636,22524,7357,-931,-742
3245,-1213,-2241,3509,6649,20136,6121,-1164,37
3245,2869,-2513,1613,6466,17107,5838,-1886,-1452
3245,927,-843,617,5914,14265,4665,-1645,-1139
3245,1431,1175,-25,6267,4110,-36,-1571,-682
3245,-3242,4954,-8934,5718,5028,4006,-3599,3318
3245,-2066,-3568,-7332,1006,59656,29056,-2300,1515
3245,-167,-2850,-1264,6508,14824,6384,27,-1702
3245,1108,-1903,-1070,6523,12926,5435,395,-753
3293,-32,9304,522,10989,-39853,-19137,-3045,26259
3293,-1399,8374,1714,7814,-24961,-11684,-2542,21845
3293,847,10003,2984,8146,-31073,-15272,-2588,14531
3293,-1098,-3894,1795,7239,23121,12695,-934,-6354
3293,2235,-2873,1608,5555,18835,10745,-540,-6648
3293,6518,1449,-2250,6377,15463,6206,-557,-4385
3293,6191,1232,-1955,6208,14902,6017,-435,-4551
3293,5230,1250,-1295,5815,8792,3329,-228,-4125
3293,-2254,1814,15840,6203,8490,2761,222,-2366
3293,-2145,-6156,15208,4387,48971,19947,-182,-2420
3341,-3267,-1147,-1718,5673,7177,1133,-1624,-885
3341,-1037,5048,-1527,8170,-37354,-19891,-1027,-923
3341,-141,3307,-727,6343,-23639,-11576,-1484,-920
3341,-1098,4128,-160,9546,-29154,-15975,-1170,-4376
3341,-879,3073,789,9564,-25556,-14693,-1228,-3830
3341,-2073,-3541,-57,6605,27685,4782,-826,2286
3341,-2217,-3544,-515,6637,24382,3453,-196,251
3341,-2582,-1890,-1010,8290,14432,-644,77,-775
3341,4104,-2507,1290,2911,15310,7357,-2016,6634
3341,3513,-1507,843,3454,11469,5378,-1800,6088
3390,5879,4622,1998,5193,-14529,-6678,-659,-4711
3390,5924,2038,9623,3740,14957,5711,-1346,1463
3390,4564,9766,7660,7681,-37222,-19434,-1488,3095
3390,997,-2334,4763,5570,19042,2733,-3288,4151
3390,508,-1859,4655,5294,16456,1593,-2807,528
3390,-912,3105,-2278,8325,-27423,-17805,-824,-3931
3390,-1529,2433,-844,8111,-21010,-14037,-340,-3486
3390,-4091,3324,-1019,7691,-22420,-12439,44,-2987
3390,-1510,-2144,-1185,4237,28471,12143,-893,-2033
3390,-1498,-4373,1025,5250,24849,9626,-1074,-1757
3439,-1822,3895,356,7227,-44470,-20069,-387,-1835
3439,605,3977,779,6443,-42397,-18641,-717,-2351
3439,900,2524,698,5674,-27339,-12314,-1080,-2478
3439,428,-6999,259,4565,57706,22695,-2206,291
3439,-1452,-6555,761,4609,49315,19366,-1909,472
3439,320,-1103,1124,3385,23198,10506,-607,-180
3439,2322,-992,671,3530,20523,9124,-861,11
3439,64,141,-26,4060,9531,3956,-1105,0
3439,-1371,5643,12,6397,-20049,-11830,-608,-3037
3439,-1360,5373,2968,6440,-21322,-14522,-855,-2283
3488,-1800,1575,496,6344,-7712,-3592,-1568,2411
3488,-2781,-2869,801,3061,27963,12404,-2021,1080
3488,670,1026,-210,3539,5309,1038,-1383,52
3488,422,-1267,-1294,4454,21778,8790,-1211,-94
3488,1225,-1182,-737,4560,19842,7954,-1062,-365
3488,-245,-2546,-652,3840,38847,15598,-2025,152
3488,-1280,-2179,-27,3961,32525,12797,-1980,-331
3488,697,-540,651,4292,18616,6862,-1512,-984
3488,-4435,-1503,186,4484,15246,6078,-1268,1711
3488,1048,-746,349,4476,10426,3726,-1103,1124
3535,659,5653,1256,8578,-36993,-19709,-1141,-296
3535,803,4489,1026,8347,-22514,-13291,-1342,-228
3535,1876,7558,166,8354,-32187,-18012,-900,-247
3535,4124,-1588,322,7091,18385,7923,-1059,562
3535,3477,-1413,826,6873,15022,6443,-900,868
3535,-5109,303,-1055,3913,14065,7407,-661,2219
3535,-2726,1705,-1673,4465,7913,3970,-684,1986
3535,3427,-8892,3234,4432,67009,25907,-2428,188
3535,5761,-6316,2408,5164,49594,18279,-1552,-101
3535,5365,-3131,1523,5305,28098,10144,-864,-401
3583,4074,5836,-375,9391,-43998,-20665,-140,-2029
3583,1967,1894,-228,6154,-14225,-5250,-858,-1985
3583,2298,-605,-56,5702,8449,3710,-1150,-1936
3583,2627,4203,654,8939,-21214,-10317,-2700,1134
3583,-1803,3772,461,8583,-21094,-10264,-2455,2427
3583,-2854,-2136,686,7101,16818,7819,-638,920
3583,-3650,-1948,594,6538,14788,6644,-651,995
3583,-578,-1292,1161,8975,9072,4649,-1438,-141
3583,-318,-620,888,8896,5642,2164,-1237,201
3583,2764,776,595,8664,-2507,-1798,-861,137
3632,-4179,1534,3609,9102,-4761,-4169,-1498,1757
3632,-1651,303,1943,7931,9623,1110,-852,859
3632,-732,5930,839,9253,-37594,-19138,-95,252
3632,3749,-2219,1613,9961,23164,4601,-1190,-1185
3632,3139,-2006,1767,6925,19244,3365,-957,-667
3632,-496,4614,-1072,12729,-19261,-11321,-1258,1446
3632,473,3959,-1462,12047,-14728,-8923,-1092,1177
3632,52,-2579,922,11746,19765,8559,-1037,1637
3632,121,-2110,917,11764,16609,6664,-1167,1669
3632,-350,-418,565,11804,6732,1772,-1160,1673
3681,-1593,8360,405,18606,-48956,-26188,-298,339
3681,-1712,7317,151,16354,-40563,-20938,-564,318
3681,-591,4464,787,13658,-23800,-13546,-746,242
3681,-3669,-5134,992,9936,36406,16209,-993,884
3681,-207,-4565,1289,9995,31103,13717,-911,284
3681,5610,-1998,303,14761,19874,8041,-944,443
3681,3436,-1339,374,14561,15045,5476,-821,75
3681,-2482,3284,329,19540,-12205,-8618,-837,1513
3681,-1030,2829,427,16378,-9317,-6731,-724,1334
3681,1639,3868,415,13622,-18253,-10256,-520,1161
3778,2443,3958,333,29232,-13079,-8104,-185,-15
3778,4301,2622,758,26907,-5307,-3076,-787,290
3778,2256,-1962,1360,24300,28027,10772,-1230,719
3778,-3359,-1004,247,23440,16614,7418,-411,-244
3778,425,-1197,1232,23046,13682,5958,-385,-37
3778,-5120,-1209,2079,28846,14384,5288,2053,349
3778,-2426,3021,2068,28899,-15238,-8655,1328,149
3778,-2217,-3356,3277,27907,22835,9722,-1189,685
3778,-1871,-2530,574,26900,19873,8303,-889,603
3778,-364,-259,-2029,26501,9707,3413,-475,271
3826,-2229,5356,-3325,32784,-40280,-15755,-25,1371
3826,150,8815,-2899,30760,-65630,-26630,39,1101
3826,-190,7914,-1870,29718,-52770,-22660,-393,715
3826,252,3908,299,33519,-24792,-12865,-647,0
3826,-1054,7285,349,32677,-51825,-23815,-115,-500
3826,-736,-2938,1180,29867,28605,14314,-37,-212
3826,1585,-2158,908,30767,26919,12987,146,-520
3826,2100,-2006,6017,33863,19815,10769,497,-3029
3826,3480,-1553,4606,32140,15663,8571,304,-2437
3826,939,37,2254,30764,2461,2672,298,-1572
3875,5307,-1730,1197,34390,23107,11495,31,-2034
3875,5345,-1378,1202,31212,22601,10601,561,-1414
3875,6901,6321,700,32123,-34648,-14656,1234,-810
3875,3730,-1496,-1065,34066,18784,9595,763,-1652
3875,1187,-1279,-1207,32341,14732,7549,311,-397
3875,921,-1407,-2600,35301,15934,6795,-1569,1707
3875,-1266,-6289,-2927,30773,54201,23612,-1618,1720
3875,-94,-215,-147,37829,14654,7249,-142,-151
3875,325,670,-237,35704,9923,5228,-118,-236
3875,418,-1327,997,38241,11111,5798,400,-618
3923,781,6812,5525,38961,-52145,-21292,498,-696
3923,1641,4885,5722,36169,-33998,-13744,322,-799
3923,-1386,-3508,-449,37461,28403,13489,-177,203
3923,929,-2470,-551,35620,21149,10211,77,43
3923,6942,-606,1054,37014,9652,7451,1025,-2165
3923,6270,-787,2412,36314,9618,5518,588,-995
3923,4044,-167,3189,35604,1408,823,212,461
3923,-4997,-3738,-582,36557,37515,15941,-374,775
3923,-4381,-1888,-1321,35258,24110,10162,-30,968
3923,3698,-409,625,38495,5349,3311,666,-102
3972,-3995,554,-2053,38686,-4029,-2990,-984,1269
3972,705,-1426,-2538,36756,17165,5329,-686,335
3972,4731,6990,-3471,40392,-43149,-14421,1076,-620
3972,5039,6631,-3866,37552,-44282,-14825,1090,-381
3972,-3610,-1346,-1040,39286,17861,9438,539,963
3972,-3258,-1179,-1080,36900,15481,8185,615,849
3972,-2233,-140,-855,35053,6982,4177,634,594
3972,7263,-570,-944,37960,4318,3286,812,-793
3972,3933,-395,-1109,36402,3536,2344,730,-536
3972,3134,-3664,1681,38589,20359,10043,339,-927
4021,-3679,5163,-4546,40216,-36897,-12317,317,1110
4021,-4630,-1389,-3500,35813,9547,6609,-323,1423
4021,1221,389,-3540,39213,5510,3361,1246,-1662
4021,714,191,-4028,38317,536,2272,681,-1420
4021,4645,4877,923,42282,-44745,-18047,807,851
4021,428,4706,-953,39216,-41343,-15624,817,872
4021,-1644,5775,-2799,37289,-44628,-16489,916,840
4021,971,-2746,1125,36211,16462,9154,359,-32
4021,584,-2352,974,34571,14025,7561,466,-93
4021,1217,-192,1240,36438,5998,4753,623,-431
4070,-794,7465,805,39192,-63118,-23815,1285,68
4070,-1123,4842,1089,36555,-39814,-14687,747,54
4070,-137,-5261,4295,35868,37994,15889,812,-1111
4070,1589,-4282,4408,34986,30014,12845,698,-983
4070,-852,-2518,4549,34618,11974,6802,727,-663
4070,-3280,-2092,3982,43835,9121,4970,-693,777
4070,-5820,-1772,4529,40769,8069,2894,-1009,625
4070,1594,3809,1896,38497,-43587,-14219,651,-476
4070,797,4200,1337,36100,-39790,-12997,950,-810
4070,1826,-2762,-3386,35774,2240,7099,827,264
4118,3337,4792,131,40203,-53637,-18864,1530,-1297
4118,1113,733,377,35781,-16688,-2933,795,-1526
4118,-6102,-4200,1013,37045,9701,5815,-192,2688
4118,-8505,-3880,823,34084,5287,4479,-414,2770
4118,-313,-4684,-611,35355,32787,17580,848,-563
4118,291,-3819,-756,33336,24960,14390,677,-608
4118,1333,-2817,-735,31669,15216,10475,625,-631
4118,-1673,-996,-3158,34015,-11073,5113,1229,-1808
4118,-2334,-1502,-1489,32566,-9295,4162,749,-452
4118,-355,3518,3212,38605,-58969,-16060,620,858
4166,3777,6324,-2437,33999,-60193,-13060,1172,-700
4166,2942,5828,-1272,32496,-59475,-14506,869,-528
4166,1486,-2857,1131,32847,-11761,7078,728,-1037
4166,2125,-2013,1137,31657,-18043,4109,541,-1004
4166,-3549,-1333,-2083,33354,-17465,5638,930,-379
4166,-2141,-1065,-1483,32538,-16911,4477,654,88
4166,501,-45,-1068,31574,-25702,49,481,547
4166,-1942,-4504,-2210,32028,7470,12940,387,-117
4166,176,-3702,-2727,29963,-2772,9578,828,-140
4166,-4722,-1349,-15650,32245,-35512,3180,799,1988
4215,-998,2767,5526,35505,-57292,-9643,-378,15
4215,-2537,-2686,4408,31100,-12000,6758,-400,-76
4215,-3096,8602,-1100,37407,-128487,-35254,99,1467
4215,63,3310,281,34492,-75447,-18483,-467,1451
4215,1876,-3861,-904,34465,-6576,10973,989,-1621
4215,1852,-3930,-353,32451,-9481,9232,661,-564
4215,202,-2785,81,31075,-20965,4151,390,360
4215,255,-2624,1584,28757,-12914,5367,72,-214
4215,86,-2457,1758,28152,-15268,3398,75,-199
4215,2187,-2535,2379,31344,-2881,6654,-1552,-103
4263,6025,2253,-2323,30284,-59998,-13347,-417,-423
4263,4501,2892,-398,29750,-67305,-15369,-881,330
4263,3439,-2958,2359,27834,-8628,5858,890,-2404
4263,3632,-2600,1146,26578,-11166,4792,868,-2383
4263,-10212,1064,-3476,30147,-62337,-12962,205,2626
4263,-9005,8588,-3511,31394,-130699,-38016,1138,2380
4263,-6708,11244,-2875,29734,-153289,-45017,1123,1989
4263,-688,-5854,-3009,25387,5454,12104,178,1917
4263,506,-4224,-8025,24860,-2384,8283,63,1786
4263,2306,-4566,8518,26316,-7524,8210,908,-530
4311,-1652,-460,-1708,27996,-63384,-9930,384,211
4311,1462,5002,-6682,28279,-114741,-25522,849,-299
4311,4474,-5233,-6264,23096,8433,16206,231,851
4311,2477,-4079,-9589,22267,1024,13565,414,83
4311,-3551,-4527,-5889,23696,-22090,8229,430,644
4311,-2571,-3478,-4806,22821,-29337,5004,411,304
4311,1092,1574,2580,20100,-83887,-10156,768,-70
4311,2022,992,3702,20058,-75857,-8761,680,-360
4311,3319,2282,3709,21715,-86089,-13101,796,-451
4311,1925,-4489,-2732,22693,-25244,8429,404,1056
4360,-1939,-5748,-187,20620,-31049,5734,-369,1708
4360,1958,-6560,1398,19940,-14400,7917,-439,1464
4360,-2422,-3878,-141,21257,-47421,4267,892,83
4360,-861,711,2555,23081,-94560,-13173,958,-269
4360,3479,-8574,1002,22420,-1687,11094,-389,-67
4360,-789,-7222,2465,22650,-9754,8559,-340,511
4360,-1371,-4419,2322,21454,-32925,3592,-10,707
4360,1307,-2973,-1535,18902,-41267,6151,401,-157
4360,1917,-2336,-1276,18723,-46135,3451,437,11
4360,-1480,651,-3548,24559,-106178,-11357,205,847
4409,1081,2045,1301,19945,-118420,-15308,854,1305
4409,1463,-538,3261,17480,-79891,-4444,268,1321
4409,-2155,-5109,2116,13541,-47517,8628,1042,1452
4409,-2154,-4609,3040,14042,-49228,6340,858,1419
4409,295,-5064,2099,24112,-61389,-6,56,782
4409,226,886,1620,25920,-133801,-20363,296,967
4409,351,4158,-185,24709,-163216,-26841,270,772
4409,38,-7136,13875,16956,-12002,11215,196,846
4409,-753,-6380,12716,15955,-17326,9637,572,99
4409,-8000,-6437,4591,19346,-53007,4501,-412,3014
4458,3465,4269,616,19623,-187723,-27980,608,-729
4458,4467,2193,1111,17247,-163683,-20133,169,-367
4458,-7262,-8891,-7343,11648,-10943,17786,-2748,4503
4458,-4971,-7075,-6503,10003,-31177,11699,-2353,4871
4458,6002,-4275,-3277,15649,-63665,6414,1314,-2501
4458,3841,-3529,-2570,15863,-65792,3657,1143,-2487
4458,139,-3549,-1220,15385,-104177,-2457,201,2126
4458,-51,3281,-1123,17913,-193111,-24794,691,1947
4458,2414,-3808,-7181,13971,-70814,7887,781,452
4458,1636,-4168,-8638,14129,-68635,6701,433,1123
4507,-3992,-4804,2961,13677,-98175,601,-129,1160
4507,-5056,-6438,3479,12497,-57152,7659,-85,651
4507,-2790,-4816,3545,13438,-83898,3748,637,81
4507,-1955,-3834,709,12113,-90690,2901,688,151
4507,1041,-10360,7638,13064,-21160,17404,-795,1671
4507,722,-7934,6179,13585,-50128,9899,-216,1210
4507,-2080,-7546,8470,11518,-100450,814,-406,2564
4507,-244,-6043,6362,9802,-107132,-18,-296,2339
4507,1135,-3049,4223,10872,-130156,-4018,267,1738
4507,-1243,5712,-2775,15482,-255440,-30669,440,1579
4564,3514,4381,4591,14759,-223961,-25851,-225,311
4564,-1318,-4735,2891,10016,-95526,5854,603,1422
4564,-822,-4616,3943,8189,-96439,4489,420,1292
4564,-1233,-5466,9351,16256,-109646,-2300,-391,661
4564,-3928,-5336,7741,14681,-104069,-839,-394,1086
4564,-4897,-4138,5417,12182,-109989,-1988,-105,1099
4564,922,-8394,14070,6172,-52263,14536,-507,1032
4564,4794,-6331,13601,7663,-62483,10077,-196,554
4564,-2070,-3088,1995,13316,-118779,-167,-312,2400
4564,-1133,-2758,197,11827,-119839,-709,-52,1887
4612,3095,5711,12791,13324,-269012,-33220,842,116
4612,195,4395,14482,11074,-246208,-28200,334,358
4612,-132,2529,17887,10340,-215903,-23457,-117,814
4612,1297,-6236,18342,4539,-68730,9210,679,156
4612,-1110,-5850,20881,8510,-68149,6606,362,552
4612,-4887,-4934,10732,12870,-92430,2538,-302,2486
4612,-4343,-4792,11323,11728,-85941,2531,-406,2494
4612,-2639,-3616,10616,10097,-96068,223,-154,2112
4612,550,-4483,16713,11589,-99910,472,-713,1157
4612,219,-7992,15810,9422,-36763,11051,-685,1238
4660,2754,-2255,25267,9629,-153695,-8774,1398,299
4660,3830,1662,24902,7586,-209803,-19095,1621,-399
4660,1928,-3909,22531,4781,-103813,2378,940,-151
4660,-3873,2689,7453,11567,-190060,-20604,-217,3049
4660,-1201,5152,11221,11406,-228102,-27803,121,2688
4660,-2882,-5547,9786,6124,-52599,9837,-73,2045
4660,-1896,-5055,8663,5940,-55145,8478,-189,1852
4660,303,-3773,6841,6440,-72605,4287,-111,1671
4660,-1615,-4747,15819,7000,-70731,3196,612,1123
4660,634,-4234,13082,8140,-73500,1692,425,1187
4708,491,-1713,10893,7830,-110842,-5157,-139,1046
4708,545,2899,11770,8065,-182555,-20074,315,905
4708,-1770,-2105,11664,7367,-92324,-1745,-404,1029
4708,1972,-3192,17003,6937,-71231,4001,-165,-767
4708,3356,-2335,18106,4120,-73874,3148,121,-1190
4708,1469,-2590,14631,9306,-78892,-70,-302,-9
4708,4017,-1281,15137,9422,-96327,-5153,126,185
4708,-240,-6396,31822,7355,-40215,7830,-594,2094
4708,-1587,-5716,30182,6346,-43379,7325,-304,2142
4708,323,-4228,25333,4056,-59227,4598,152,2094
4757,827,6318,15456,10284,-229383,-28579,667,809
4757,-865,3499,14859,10144,-177214,-18967,267,729
4757,1545,3398,14813,9497,-165855,-18592,353,414
4757,-374,548,17765,8307,-125196,-8930,-796,2273
4757,220,-9859,16803,3329,58503,27395,-1306,2071
4757,-1129,-3659,14895,6749,-47316,6074,89,2412
4757,-2930,-3320,13297,8179,-51421,3956,-4,2319
4757,-1103,-2171,11785,8541,-71934,-891,-22,2199
4757,-1317,-18,10210,4932,-94194,-4077,153,2812
4757,-599,6207,10296,7142,-209606,-28426,507,2825
4852,-3320,6646,13950,7019,-211747,-27994,1551,2204
4852,-2957,5920,13686,7167,-189217,-24037,1052,2012
4852,-323,-4078,5827,4331,-8839,10819,-125,2777
4852,409,-4295,8236,4261,-11904,8954,-137,2700
4852,2030,-3585,10446,4880,-35785,3222,-225,2621
4852,1505,-3256,16949,5856,-15502,6389,171,1309
4852,1583,-2902,16633,5745,-22072,4790,40,1450
4852,1385,-1122,13961,6512,-64970,-1709,-1289,-329
4852,2316,-4410,10769,5663,10981,11364,-1388,409
4852,-3864,-2698,10577,598,-36917,6225,887,3514
4900,-3668,4092,12703,5549,-184715,-22052,234,2563
4900,-3663,-1883,11523,3303,-72817,-213,-712,2510
4900,566,-3684,13758,9194,-38931,3115,495,41
4900,1049,2153,9962,10615,-129147,-15856,956,45
4900,3624,6815,7413,12733,-212172,-31591,842,79
4900,1727,-4777,10396,563,6848,13125,-9,1890
4900,1237,-4083,11744,-501,-1694,10652,211,1477
4900,-515,-3999,11874,7168,-24953,6133,60,654
4900,-321,-3193,12463,6622,-40497,2662,165,413
4900,-5809,1695,10256,5980,-121205,-11207,50,1712
4948,4029,-3069,12750,4601,-34436,3806,647,1461
4948,5998,3413,11446,5577,-137947,-15258,1253,500
4948,-109,-3506,8215,4862,-18267,8916,409,1305
4948,714,-2991,7744,5269,-25352,6305,279,787
4948,-5998,-3031,7448,3801,-32121,5059,-276,2893
4948,-5777,-2129,6477,4016,-35542,3756,-221,2589
4948,-3595,-429,6059,4691,-61851,-2234,-37,2163
4948,3360,-3976,-431,7236,9216,10831,-214,-118
4948,3505,-2694,-3275,4499,1142,9298,-43,-313
4948,936,-2643,17706,-112,-32756,6097,347,1439
4997,-489,7050,4160,8388,-207591,-27016,736,187
4997,226,4751,1825,6487,-152317,-16783,382,303
4997,1875,2097,12241,10340,-128884,-13053,-919,812
4997,2671,-8482,9649,4439,83141,25377,-1227,195
4997,4163,-2701,6185,3931,-12042,8634,975,-481
4997,3060,-1475,5159,4046,-16605,7285,1339,-191
4997,2455,474,4535,2973,-40963,1941,1310,650
4997,-752,-2218,7185,2473,-30770,4724,799,2833
4997,-4040,171,4769,3678,-67370,-2384,846,2144
4997,-3879,-2736,6157,6331,-27099,5744,271,2278
5046,-3079,3414,10510,4036,-146357,-18933,-9,2288
5046,-1185,-2618,5808,596,-24012,4446,-662,2110
5046,968,-1607,3307,4579,-29470,5673,350,1107
5046,-845,-1461,3960,4664,-30456,4514,292,1089
5046,-822,3,4541,5161,-53082,-685,357,1049
5046,-431,1605,1682,6909,-101647,-5236,-897,1696
5046,1295,-7621,2045,4904,79853,24245,-1489,2014
5046,2071,-847,223,-4091,-23890,5931,901,460
5046,-45,391,1667,-1404,-37396,2856,989,466
5046,2532,-1086,6528,6288,-36455,1035,402,663
5093,592,6052,9473,9676,-195221,-28452,208,969
5093,-700,4430,8158,7844,-156447,-20855,299,435
5093,-3063,-2472,-1640,4894,-3388,7509,-700,1780
5093,-564,-732,-7205,3638,-17033,5508,-961,1485
5093,-2493,-2138,7657,4686,-16792,5142,373,2424
5093,-5624,-2079,7153,4712,-17000,4569,271,2501
5093,-5351,-966,6445,4392,-33592,1366,584,2129
5093,-537,7547,9340,8335,-208236,-30567,-217,1164
5093,184,428,8075,5697,-70363,-6051,-838,1151
5093,3113,-2538,4166,2691,-1375,7561,184,-365
5142,2973,-1781,6190,3727,-7696,4457,-1289,737
5142,1376,-1490,5549,5029,-10166,2448,-458,754
5142,-680,4926,7559,14576,-122808,-17157,477,1262
5142,1467,4424,7816,12763,-116927,-15932,307,1387
5142,13,-4310,13369,6902,21045,8670,420,443
5142,513,-3688,13041,6220,7658,6473,586,557
5142,-3453,-2658,7123,2352,-14556,7139,589,3160
5142,-4271,-2704,6916,1338,-11409,6649,287,3558
5142,5725,-2831,-3201,335,39106,15174,-62,36
5142,3598,-1889,-2594,484,22125,11063,328,228
5191,-8362,4074,4999,10705,-154425,-23126,308,2809
5191,657,-962,1987,4355,-22517,4515,363,588
5191,1136,-552,2126,3025,-21559,3616,295,523
5191,1702,975,2346,399,-46141,-1626,400,304
5191,2076,4988,7033,6309,-139993,-18166,298,202
5191,250,4941,6956,6186,-134500,-17790,317,298
5191,-376,-3247,3015,2280,11673,8237,24,1374
5191,-1552,-2127,2813,771,-2631,5901,356,1521
5191,-21,-669,2862,-100,-27652,1640,466,1475
5191,-1135,-2412,5154,3264,-5925,5691,617,719
5240,871,7625,2264,10699,-202851,-30543,-150,1425
5240,-365,6090,-1413,9475,-153467,-21312,-249,1043
5240,257,-5737,5169,3182,64230,17358,-440,1110
5240,-2348,-4426,4778,2374,48354,14598,-122,922
5240,-649,-1971,2897,3841,811,7070,22,2513
5240,-3815,-1614,3979,4211,-11206,3944,-107,2566
5240,776,5137,2706,4151,-137290,-17281,67,1530
5240,-1811,4315,3958,-262,-127734,-15789,9,1562
5240,339,4430,5565,-80,-134599,-17772,256,1336
5240,3373,-2037,3290,-908,10731,8906,251,-390
5289,4746,-2258,2903,5269,-8820,5938,-206,-306
5289,1859,-3474,1161,5084,22074,9888,-89,346
5289,488,-1766,2153,4638,-6350,6098,252,-325
5289,2384,-1647,2498,5141,-6315,5005,218,-37
5289,-3444,-4489,-276,3149,29284,12533,101,397
5289,-3598,-3542,937,2998,11221,9029,94,659
5289,1229,-1433,3327,5335,-11068,4731,426,-180
5289,1122,-1095,2804,4051,-13243,3657,243,-291
5289,-566,410,2521,3261,-35936,-1078,242,-223
5289,-2726,5380,3372,7472,-131107,-16783,-1579,2692
5338,1330,33,1998,5630,-60796,-2888,482,-361
5338,1603,-4405,2884,4195,24161,11204,312,-104
5338,2165,-1392,3425,5047,-7851,4760,204,69
5338,3535,-1037,2003,5247,-12871,3562,150,525
5338,1981,-873,1617,5299,-14699,2635,963,907
5338,653,334,900,6375,-29135,-338,1180,643
5338,-94,-4276,1565,2551,25039,10333,-193,1432
5338,-1485,-3018,-2874,1581,14728,8666,-150,1574
5338,909,-416,-6251,1614,-16126,3631,177,1600
5338,-2934,-322,2234,3217,-18211,3096,451,1280
5387,-582,7349,4236,9169,-188842,-27822,163,1623
5387,-156,4480,4064,7583,-136440,-18889,-293,2256
5387,-1915,-4728,3594,2630,59386,17651,-886,1800
5387,-1710,-5926,2932,2747,87636,20582,-835,1890
5387,-2802,-955,1590,5260,-5137,3846,297,2447
5387,-471,-1217,2016,5565,-6756,2986,146,2541
5387,-1753,-722,2020,5092,-22302,30,0,2502
5387,5150,1089,-748,5435,-29198,-94,847,-2839
5387,6008,6081,633,8114,-126950,-18877,1342,-3082
5387,-4443,-2983,8028,1285,9323,6408,-130,2859
5436,3665,7863,-2422,8456,-150817,-22293,1271,-255
5436,2439,-1742,1195,4311,14416,7756,195,350
5436,718,-1318,-3601,3098,-16380,2448,-117,533
5436,581,-935,-2113,2251,-19572,1532,-55,680
5436,2679,8205,3247,5774,-202301,-27868,23,1528
5436,2247,-4931,1391,2169,57587,17243,-1076,1718
5436,-289,-6359,1800,3980,96061,19922,-655,1599
5436,614,-861,2079,1500,-19270,3671,428,884
5436,177,-326,3449,1824,-38707,-807,350,835
5436,-32,-170,2215,5093,-31093,-858,398,662
5484,343,5324,2631,8135,-146319,-21182,20,953
5484,956,5031,2743,7231,-128694,-18644,17,1098
5484,1019,-2753,7852,1148,18432,8778,600,1022
5484,-198,-2378,6902,1269,13523,7618,638,858
5484,392,-549,839,2282,-9464,3660,556,987
5484,3161,-341,1296,2264,-20212,1111,581,1052
5484,236,-3398,477,2098,29191,10251,-99,929
5484,-120,-2800,-90,1981,11574,7337,-126,1387
5484,-532,-684,-1089,2781,-20439,1854,73,1327
5484,-2358,-1025,-532,1438,-23686,1416,183,2786
5532,-3671,6900,2748,7938,-152579,-23498,494,1516
5532,-3555,3968,3575,5605,-102616,-12817,6,1513
5532,-480,4890,3148,8430,-137166,-19002,228,1460
5532,-474,4687,1136,8568,-124091,-17107,148,1290
5532,-63,-2047,-633,1965,24663,10331,345,584
5532,-1629,-993,242,2240,5591,6757,632,401
5532,571,-1259,2299,2532,-1911,4902,281,201
5532,-1582,-1117,2998,2923,-5750,3626,189,134
5532,-1764,298,3603,3161,-33798,-1496,399,172
5532,1743,-2813,-1011,-164,42850,13910,-220,-265
5580,-770,4355,3515,4275,-116499,-15639,1386,-833
5580,974,3135,3213,3920,-89002,-8899,1136,-1219
5580,-7022,-1594,-6,-845,-5019,6081,-207,3970
5580,-11959,-804,-589,-381,-15105,3372,-338,3908
5580,2784,7102,212,5728,-185079,-25464,2017,588
5580,256,5801,425,4881,-155104,-19427,1748,869
5580,514,-2389,-1278,2550,31902,11350,7,56
5580,1119,-1938,-1043,2910,18340,8313,-69,253
5580,-2201,-2057,3673,2369,1581,5814,-225,1078
5580,-1664,-1630,4635,2565,-366,4979,-38,909
5628,739,5890,-5194,6402,-133478,-18161,381,735
5628,1220,-900,-1266,-4283,-7812,9915,99,741
5628,-3668,-7369,-2256,-4305,127790,30045,-283,1654
5628,-5754,-5094,-1471,-721,77520,18871,-243,2582
5628,185,-1509,-2141,3796,590,3933,-174,483
5628,2682,-1029,-1931,-439,-7876,3608,137,237
5628,155,3791,-1927,1809,-99231,-10639,562,724
5628,1584,9232,-431,5388,-210683,-29543,754,479
5628,1718,-2260,789,2466,3236,6894,270,324
5628,1656,-1887,-774,2577,-230,6783,454,149
5687,-389,-1957,1594,4321,-96,5742,-10,216
5687,-404,-527,-1129,3604,-16813,2777,-117,1336
5687,839,-643,-766,2677,-17241,2487,-190,1724
5687,-396,198,-402,2562,-41301,-1607,-88,2221
5687,-710,-4260,-463,2599,51800,14635,-256,735
5687,-1749,-3321,507,4312,31912,10441,-177,824
5687,-2211,-214,-501,1233,-21892,2675,280,1195
5687,-387,256,-467,3132,-32494,58,-94,1411
5687,1313,7424,-1964,6088,-139535,-18637,1198,-292
5687,-1030,9625,-112,6693,-203243,-28745,1073,-253
5736,566,6650,12,5073,-163390,-21413,453,642
5736,-835,1640,557,2549,-54189,-1507,-398,751
5736,1679,-761,-329,2996,13003,8026,-517,593
5736,2007,-984,-1294,2549,-1887,5714,313,-63
5736,494,-987,-1207,2508,-5309,4652,156,183
5736,-3773,-6927,2875,927,86526,21203,-1423,2547
5736,-5805,-7354,3072,1495,103487,20905,-801,1370
5736,-3478,-4878,3348,2772,56613,11981,-100,269
5736,-4037,-1581,768,3884,-13727,2817,261,1033
5736,-3255,-1219,-255,2450,-16994,2146,115,937
5784,-796,6339,346,4614,-164244,-22753,-81,913
5784,-1912,4986,438,3983,-141810,-19076,-187,1240
5784,-4380,4385,469,4638,-126984,-17465,-125,1313
5784,-44,-2236,-1061,1112,15525,8118,56,17
5784,27,-2067,-456,2017,8906,6573,180,-54
5784,6029,-787,866,484,-11435,3657,664,-2445
5784,5884,-477,2612,1096,-19882,1889,640,-2323
5784,3488,947,3478,1508,-44160,-2322,575,-1674
5784,-1689,-2898,-3430,751,14346,7572,-385,486
5784,-2893,-1359,-5041,30,-13456,3707,-122,-142
5833,1068,4705,2942,4032,-131304,-16429,170,727
5833,2610,-1075,2122,-401,-6078,4474,-265,753
5833,946,911,1896,-993,-39972,-2641,298,667
5833,1007,5972,-5905,5563,-123503,-16240,-241,1192
5833,-1539,5035,-4295,4788,-109405,-14058,-163,1121
5833,-1056,-2169,-3181,2399,20224,7841,-100,1053
5833,-435,-1106,-3604,2462,9517,6169,344,401
5833,-1411,310,-2228,2499,-18064,1774,696,-190
5833,-3464,-1241,-509,4363,-3949,3076,-279,1840
5833,-2287,-539,-724,3416,-15835,1194,7,1396
5882,-764,-946,-803,-19,-14284,581,-1803,1206
5882,1035,-2326,-149,-2495,22014,6253,-1124,715
5882,536,-565,1141,-2358,-7631,760,-329,400
5882,-256,900,-6913,1176,-15984,3844,196,645
5882,1655,370,-5977,1273,-21084,2634,-25,708
5882,1301,4424,4625,5070,-123095,-17077,-107,-182
5882,-637,3699,4366,4974,-105776,-14540,-160,20
5882,-1310,5485,4230,6285,-139306,-21502,-48,437
5882,1194,-460,-812,5554,25767,7854,353,-121
5882,693,298,-394,4739,-1891,3113,344,-72
5931,2745,9433,-2724,5372,-202330,-29476,666,-1036
5931,-143,6429,-1331,3793,-150116,-20672,287,-417
5931,951,5371,-627,2747,-127097,-16979,587,72
5931,-1288,-3890,-478,1962,68535,15288,-662,510
5931,-2314,-3633,418,3442,56907,12537,-194,81
5931,-1517,-2678,-316,2618,30494,8566,147,758
5931,-3480,-2223,-308,1703,30617,8367,223,645
5931,-2612,-1032,346,1226,15655,5728,301,642
5931,-6654,2692,3040,3429,-89432,-11716,-1023,3439
5931,-6267,2647,5413,3641,-96804,-12947,-896,3500
5980,-4062,4781,-1545,3525,-118230,-14846,282,459
5980,-815,-1981,-828,1247,18419,7905,-568,339
5980,-1405,-2090,491,2859,22962,6332,-564,253
5980,-864,4100,760,7411,-96301,-14273,68,116
5980,-1232,7242,1286,6089,-159591,-23573,248,155
5980,-1059,-3552,-743,-2254,52208,14067,189,-117
5980,-1349,-3110,-89,-2060,44259,12850,55,-187
5980,301,-2046,370,-813,24434,8991,96,-659
5980,3624,-426,-6108,-4925,24171,9255,919,-1787
5980,944,-854,-3077,-3642,17955,8131,948,-1589
6029,-4792,2421,6067,4297,-85622,-11504,589,371
6029,-4937,-1147,3695,2547,-14215,2549,-274,1325
6029,-2267,-4102,1377,1131,51870,12645,-386,1502
6029,4473,-1341,1675,1895,25714,6953,636,-1231
6029,4152,-264,627,2043,7081,3919,708,-1101
6029,-1312,6317,-882,2520,-137799,-20020,1069,875
6029,-2095,6779,214,3067,-156251,-21976,607,1458
6029,-887,5798,391,3820,-140123,-19541,264,1585
6029,-1156,-3585,-2169,-840,59567,13978,14,595
6029,-3038,-2882,-1243,2103,41947,9286,-446,844
6077,1141,5252,1069,6788,-128722,-19403,969,-297
6077,600,6751,1455,5212,-167209,-24397,749,-408
6077,1581,5601,1035,3728,-134583,-19033,440,-598
6077,5807,-576,2440,2606,-16654,339,-1050,-1131
6077,6178,-9341,1261,-600,181707,31709,-1577,-1028
6077,74,-3617,4313,-910,51684,12473,98,1106
6077,34,-2929,2595,-630,48189,11638,284,904
6077,-2365,-1502,-689,-5,29912,8046,465,917
6077,-1832,432,-2995,1384,-14873,746,322,221
6077,-636,7705,-1249,4477,-174871,-26164,947,-377
6125,614,4232,-607,4304,-99933,-15388,376,855
6125,-1286,1512,-874,3558,-48973,-4890,-79,751
6125,-873,-2161,-1415,3337,31049,7863,-389,634
6125,-713,-2354,-1350,-1583,47570,11112,345,83
6125,861,-2193,-1176,-2087,37380,9415,321,244
6125,-3115,4812,-249,3150,-135788,-19539,-377,939
6125,-2232,8056,-404,3106,-200725,-29640,52,733
6125,3810,-2367,-944,6289,66210,12697,352,-3034
6125,6045,-2399,-375,7093,58811,10697,240,-2403
6125,3912,-840,-689,7242,28052,5490,298,-1832
6173,3305,5721,2087,3763,-123521,-17819,288,-275
6173,-1726,2615,2207,2257,-73273,-9592,-50,709
6173,-2976,3372,1106,1841,-93695,-12691,79,1523
6173,-1379,-2496,-2173,-2990,79863,16121,286,853
6173,220,-1543,-2710,-1113,57973,12505,169,1204
6173,3393,-2202,-3854,2957,44506,10830,317,-1098
6173,1673,-2363,-2784,1756,39034,9785,180,-759
6173,-306,-4941,896,215,87095,16340,-614,1485
6173,-668,-3632,1244,632,60994,11590,-448,1474
6173,-3101,-1960,1562,486,25545,6110,-115,1268
6222,-2684,3720,-387,3071,-89155,-10706,381,-672
6222,-2486,-2477,-834,2184,37737,9774,-484,364
6222,-1641,6287,1040,4236,-142032,-21988,351,637
6222,-2689,2608,1551,4399,-84247,-12319,-175,1797
6222,-1162,2900,288,3374,-87180,-12688,-55,1479
6222,-595,-3885,-1983,-3693,65267,13645,26,116
6222,1767,-3615,-1493,-1798,60545,12445,164,-203
6222,-1299,-2457,526,-5412,38294,10599,351,140
6222,-400,-1753,919,-3002,24973,7794,278,52
6222,-3478,-5051,-1250,2355,80197,13783,-569,919
6271,2188,6307,815,3518,-122469,-18029,-340,-1757
6271,-242,226,-363,454,-4891,3178,-393,-1596
6271,-964,-2484,-429,-1485,33799,8322,65,382
6271,1571,-1801,612,-976,23004,6036,227,651
6271,-497,-372,1192,47,-3623,1396,247,746
6271,-3605,3966,1826,5186,-96853,-14696,-428,2763
6271,-2095,3774,1959,5427,-100333,-15737,-557,2763
6271,-2255,-1914,-3087,-5912,41971,12255,729,136
6271,-1393,-1484,-2705,-4736,36983,11295,629,176
6271,3505,-1878,1004,1542,31805,7425,-132,-188
6320,-992,7292,-50,9066,-178447,-28298,125,873
6320,-1233,4709,603,7850,-122550,-18983,-374,960
6320,-1621,-7116,-970,-1435,145980,27101,-612,621
6320,-399,-5915,-1490,-3333,118152,22652,-301,657
6320,-2529,-4491,-1710,-5521,81568,16489,-112,816
6320,2550,-2060,-1881,-996,29294,7286,-295,151
6320,1827,-1657,-2018,-291,23378,6133,-210,288
6320,1504,4946,2811,4404,-100091,-15586,-179,156
6320,-698,4791,1908,4949,-97011,-15125,-243,91
6320,-1820,-1566,-3596,-1164,28511,7808,98,786
6369,1686,-2048,4105,364,19397,6343,-162,26
6369,1613,-2512,5436,866,34696,7019,125,-218
6369,-104,-501,-1686,421,17336,5240,-16,1
6369,-313,-796,-41,391,15849,4846,-137,-71
6369,-634,113,1285,364,-4327,1165,-7,-273
6369,-847,-2815,900,1006,66224,12081,-241,746
6369,-1327,-2323,-549,1314,50561,9886,-336,881
6369,1498,258,-977,2056,12038,3429,74,207
6369,2133,277,-506,3946,2922,1026,50,-197
6369,-1892,5255,816,427,-122527,-17694,-325,2016
6418,-691,1605,-1717,-2360,-31215,-568,253,-111
6418,1093,-1927,-2304,-714,51526,11350,-277,342
6418,-474,2361,-1789,3911,-35147,-5498,30,401
6418,-981,-2121,7553,-626,17937,4598,111,42
6418,312,-1943,7713,562,8869,2395,-192,819
6418,-942,482,-249,1613,-4225,1466,34,655
6418,1135,4148,1199,3669,-85634,-13374,497,404
6418,-3080,-2461,-1906,1923,49798,9401,-101,1844
6418,-1357,-1704,-2980,-328,36838,8119,76,1565
6418,-938,-403,-3268,-1314,5543,2896,92,1247
6467,-2410,8797,1617,1748,-202892,-31700,234,921
6467,-1500,6554,1429,980,-153760,-22914,-12,644
6467,968,4596,820,895,-106266,-15271,-68,326
6467,-90,6944,1106,2270,-152448,-22086,589,-737
6467,179,-4949,492,-3644,101577,21222,-278,-553
6467,1504,-2037,-142,1418,44042,8208,94,-787
6467,2732,-1206,-1431,809,27210,5889,79,-460
6467,634,-1126,1300,-3149,28810,6524,515,-213
6467,-304,-441,1343,-2338,19374,5117,699,283
6467,-3256,5580,1391,1458,-104640,-16231,1203,791
6516,1776,-1308,907,5290,11356,4271,-186,-156
6516,-690,-2877,341,4335,51352,9705,-55,-288
6516,475,3617,767,4960,-77352,-12833,739,-208
6516,-1389,-1288,-2895,501,24044,5985,343,1993
6516,-2447,-1026,-2687,1116,18146,4715,352,1999
6516,-1200,-5679,-499,-2253,113521,22529,-1551,2216
6516,-2997,-5466,-1865,-2221,117026,20787,-960,1850
6516,3978,-125,-1444,-3522,16370,4838,16,304
6516,2477,23,-1178,-4363,15610,3879,-335,587
6516,-868,900,-444,-1647,-9680,-1214,-466,910
6563,321,8682,908,3618,-185995,-28264,24,788
6563,-2185,6223,1814,3286,-137486,-21017,-228,1149
6563,2316,-1431,-1043,-3023,43424,9601,314,570
6563,1590,-1764,-979,-710,42407,8258,-244,1200
6563,-372,-1033,-1814,193,23396,4771,-494,1570
6563,-2662,-1177,177,1689,16665,4225,-297,1871
6563,-4895,-300,979,1485,-9487,-7,-174,1857
6563,-779,-1552,-1819,2960,34409,9574,-1236,391
6563,-1044,-4296,-1633,1578,102337,17957,-1013,500
6563,-1172,-1358,426,1481,10797,2709,-197,-10
6612,4058,1792,-1906,3169,-32782,-3351,-77,-864
6612,3055,-535,-2124,2448,25882,5671,300,-1125
6612,-4331,4962,1175,5572,-122529,-20663,-363,1796
6612,-4881,4566,187,3299,-113608,-17644,-228,1411
6612,-3019,4990,-426,-270,-122336,-17234,174,1505
6612,-2240,-2330,-634,1295,46454,9221,-147,2541
6612,-2285,-1533,615,2590,28183,5040,-351,2452
6612,-2975,-910,-2138,249,21610,4809,222,748
6612,-2130,-364,-1913,1623,15315,3465,260,919
6612,3689,-1798,-1771,449,70651,13425,425,-621
6661,-340,4874,-304,2632,-102103,-14743,-121,1213
6661,318,-1276,-935,359,24673,6005,-821,1465
6661,2809,190,-878,1235,-5012,-594,-449,1395
6661,3148,-642,-69,-6195,19895,4672,368,-755
6661,1781,-111,-1518,-5867,8610,3563,601,-868
6661,-1408,4722,490,2612,-112291,-17634,-39,1294
6661,-3469,4547,1062,3838,-115558,-18579,-56,1517
6661,-112,-1943,-1192,-1474,42655,9373,261,-84
6661,1961,-1601,-1130,-4108,29893,8234,455,179
6661,568,-333,-399,-3397,-209,2900,434,507
6710,-1406,8819,1537,9647,-173696,-30311,587,680
6710,1156,7632,2591,9073,-153589,-25678,196,635
6710,131,4724,3166,7004,-102113,-16877,-294,784
6710,109,-5402,1451,1455,106679,17441,-622,2033
6710,-2209,-4575,1387,915,86863,14656,-395,1888
6710,-3140,-3782,2118,2907,45339,6925,-782,2047
6710,-3936,-2374,828,1840,25935,4867,-487,1998
6710,-367,5017,1003,6183,-95432,-14841,-33,277
6710,132,4604,-16,4492,-91227,-13874,32,347
6710,-2602,4972,-937,3228,-104861,-15976,81,605
6759,1233,1194,-284,814,-20914,-447,-237,941
6759,1193,-2839,535,-2738,64612,13468,-255,643
6759,-323,1287,1567,-693,-18056,-1941,336,271
6759,21,-1336,-1455,207,37092,7719,-138,-162
6759,-1156,-1026,-545,739,29115,5685,-410,872
6759,-1382,-4223,-2246,-41,79522,13786,-820,2115
6759,-854,-3444,-2284,65,64834,11190,-754,1611
6759,290,-1300,-1304,-243,34458,5989,-681,1685
6759,2907,-1641,-1483,314,32895,5192,-811,1513
6759,3448,-1151,-1668,-1777,15951,3539,-518,1233
6857,1431,10579,-7675,367,-184043,-27142,938,74
6857,254,7088,-3888,1438,-127708,-18485,298,381
6857,-211,6144,-1711,2693,-119076,-18254,-7,611
6857,160,-8226,1087,281,166162,28209,-1355,229
6857,3061,-5781,1023,648,122342,20194,-524,-274
6857,1479,-2386,-980,2572,35225,5228,-354,1980
6857,-397,-2257,-1044,940,29788,5307,56,1400
6857,1968,-1046,-1233,471,6851,1936,408,934
6857,1097,984,-1331,980,-33462,-5202,1063,-166
6857,3225,-486,2325,-734,24627,4951,533,-645
6905,-1127,5883,-274,2370,-133745,-21800,664,751
6905,962,3385,-4499,1352,-77669,-11669,-288,1045
6905,-787,-2575,1628,2011,31097,4645,-11,916
6905,-88,-1947,3156,3312,25190,3555,111,896
6905,590,186,3472,3989,-4615,-1025,320,722
6905,5141,7906,2435,3424,-161829,-26230,468,71
6905,1665,9750,2791,3491,-211067,-34122,486,684
6905,-1244,-2366,-2921,857,49972,8236,-316,722
6905,-1226,-1376,-2914,-226,32775,5555,-259,515
6905,-532,-723,-3415,-1023,33295,7244,344,-223
6953,-1476,7494,-224,3022,-163441,-25560,120,581
6953,263,5780,133,3282,-128422,-19869,-241,923
6953,630,-3687,-4894,-1522,71254,13897,280,600
6953,-920,-2421,-8044,-1534,59688,11636,663,658
6953,537,-1062,-2135,783,41781,8302,461,-303
6953,1865,-1628,-1214,1212,37840,7245,-222,1279
6953,1220,-1216,-1010,1268,22606,4330,-762,2116
6953,-599,-4698,2863,-2753,97385,16398,-1012,489
6953,-1218,-3825,2716,-2150,71318,11939,-668,508
6953,-1562,-1662,-1462,-273,25528,4953,-122,293
7002,-1597,4999,-2144,2183,-93212,-14170,42,-478
7002,656,-1040,-1833,-403,32255,6699,-294,-619
7002,-2030,5647,-924,251,-113175,-16920,-51,310
7002,-87,5374,-822,1397,-107179,-16422,198,-589
7002,2462,-1190,-759,-3595,58682,9652,-219,303
7002,2411,-364,-1259,-8514,50491,9701,110,121
7002,1764,769,-1348,-10514,29081,6950,295,-90
7002,2125,801,-5231,533,27427,4601,-237,-292
7002,2106,313,-5887,-1518,22051,3712,-146,-408
7002,-23,-4086,-1069,67,65262,10543,-1661,2459
7051,-1288,6434,94,7769,-130245,-22856,153,1925
7051,-1002,589,-525,4106,-10055,-850,-362,782
7051,1343,4500,-7374,850,30279,5455,22,-83
7051,-836,3391,-6131,693,27512,4520,-305,47
7051,1282,3150,-4912,658,5977,403,-313,96
7051,4304,4131,-664,3436,-107886,-17134,960,-2179
7051,3971,3672,225,2940,-99707,-16090,727,-1587
7051,-969,-3812,-3636,-2115,47813,8613,-317,-619
7051,-692,-2692,-3264,775,28862,4988,-376,-894
7051,-1670,-2179,-5736,2776,24616,4673,-56,1332
7099,-1667,6559,-3802,2499,-151510,-26693,584,681
7099,-108,6815,-2900,3341,-158862,-27135,284,521
7099,-3498,-6879,-6384,3571,132632,20232,-878,1984
7099,-3348,-5787,-6753,3269,106271,15839,-725,1389
7099,-480,-2953,-9704,1083,44041,4488,-506,315
7099,-2426,-2189,-8304,1515,39156,3453,-347,259
7099,-1629,-1316,-6661,1824,23511,957,-89,267
7099,1701,9101,-11682,1577,-137386,-27055,112,715
7099,1591,6694,-9609,816,-101020,-16848,226,700
7099,-673,1556,-13359,-3145,59834,6732,-309,1101
7147,-1857,8670,-19739,2318,-104755,-20667,-125,2514
7147,-165,1776,-17974,54,-14490,-2834,-667,2094
7147,2273,-3181,-18927,3113,73627,7306,-569,2152
7147,869,-3829,-17482,2713,62189,5505,-432,2100
7147,-3924,-9320,-20226,-6434,200136,26613,-1095,1358
7147,-2470,-7358,-19883,-5018,166845,20021,-379,766
7147,1247,-5027,-19148,-4592,120713,12533,23,312
7147,6086,-1024,-20494,937,90494,3398,644,-3157
7147,4847,-1067,-19209,403,82630,2681,684,-2891
7147,5105,7098,-17650,2185,-75317,-29218,693,-1434
7195,2410,5212,-23285,3560,1330,-15771,270,786
7195,-1287,4551,-20630,2706,78,-15070,2,1257
7195,-1747,-3020,-14799,-3692,168846,7479,446,1536
7195,-2786,-2443,-13088,-2147,147956,3847,-18,1246
7195,-89,-3125,-14885,5190,194189,4245,-292,1474
7195,-2269,-2748,-15794,4526,179056,2929,-348,1469
7195,266,-2644,-15053,-4559,261194,13396,29,814
7195,-2059,-1742,-14945,-4607,235091,11098,305,586
7195,-1422,-244,-14227,-4039,206392,7482,536,451
7195,-80,2308,-13950,59,210056,3842,594,703
7244,-263,2011,-8679,2046,134742,-11247,-318,1286
7244,-3003,-3469,-6996,238,211719,4789,-901,1584
7244,249,8184,-9761,6622,141744,-5725,1372,444
7244,1967,12180,-10418,1435,50508,-25150,1727,441
7244,1973,-1389,-7649,1662,253999,9484,-114,913
7244,1774,-783,-7488,2017,237124,6051,60,1191
7244,-387,716,-7196,2047,203936,470,348,1105
7244,8763,2904,-8903,-357,244401,6426,884,-2579
7244,10256,3001,-7621,-38,224376,3680,614,-2066
7244,-3214,1369,-6765,3467,272911,7219,-1287,1733
7293,-6020,9063,-5154,5490,146480,-19541,-119,4188
7293,-4378,2669,-5240,-321,234723,3454,-687,4716
7293,1448,4241,-7445,4871,270534,4256,-394,560
7293,1079,4249,-6597,3143,253705,3874,-312,535
7293,-695,8103,-4589,4533,207358,-11262,-418,1081
7293,-568,13762,-3265,8603,100127,-34170,200,1055
7293,-419,17075,-1650,9888,33351,-45622,99,1155
7293,5290,4106,-6389,2881,296262,12971,514,-2405
7293,2489,1473,-4903,4429,272103,9731,358,-1510
7293,1350,5429,-6050,-2819,284786,10923,-672,-294
7342,-3007,12020,-2379,8845,145241,-22683,422,1671
7342,-5236,8935,-972,6793,171769,-13044,-440,2163
7342,5422,3805,-3690,6112,321637,18935,494,-580
7342,3203,3284,-3248,4643,299465,16239,-160,1790
7342,-1680,6353,-4183,-1911,283832,11428,224,369
7342,-2305,6265,-4226,-2130,267074,11333,165,1014
7342,-1529,7577,-4637,-817,244459,8835,-65,906
7342,-1623,8852,373,4640,203246,-32,347,1073
7342,-2600,8227,502,4407,204368,-126,63,818
7342,2409,6074,-2348,2068,270133,11107,-459,602
7390,860,13355,-2055,495,176930,-10672,901,-47
7390,-159,11810,-1794,502,179694,-5341,602,-146
7390,56,6289,-2338,485,260467,11519,-909,891
7390,363,8174,-2402,2736,222182,4384,-394,528
7390,-2986,4681,-261,1268,283040,17919,-1175,1234
7390,-113,5209,-405,1465,259353,15195,-1072,1077
7390,257,6933,-850,3188,226124,9157,-881,1090
7390,732,9088,-4974,2820,240361,11236,-405,1364
7390,-2583,6937,-3093,1817,220786,8377,-795,2064
7390,1439,11136,3532,9483,174340,-7735,-1055,101
7439,-2148,6930,-3792,-9482,240279,17884,-1090,2841
7439,-2911,7256,-3743,-6483,220033,12894,-755,3006
7439,-5110,6082,26,4908,218251,10084,-456,2008
7439,-5877,5629,-75,3302,202438,9023,-437,1978
7439,1758,9781,-1613,3149,201655,8565,-22,-567
7439,-598,11811,-793,4748,153220,-3245,241,-1258
7439,1937,16497,-244,7516,72412,-23071,432,-2329
7439,-1943,3514,-1111,7745,219043,16066,-1192,905
7439,-1903,3732,-144,6725,202529,14465,-1394,676
7439,-4320,4584,1507,1491,187334,7355,-1392,634
7488,644,14624,482,3516,75675,-13393,512,375
7488,-1143,14552,197,2100,66202,-10048,793,31
7488,-1286,2191,-263,-272,239411,25758,-1354,2217
7488,-3119,3020,-115,562,210063,20155,-1178,2317
7488,-4858,6699,-2209,9233,181883,10004,-1654,2726
7488,-3795,5211,-1902,10011,171024,7940,-1548,2348
7488,857,6158,-2448,8815,148924,3470,-1086,1018
7488,-202,13626,-1977,5302,101550,-8713,226,-1162
7488,-646,16090,-2086,5382,52498,-20252,-71,-834
7488,-3334,5615,-2444,-1364,165272,13231,-605,901
7537,-2977,7965,666,-1544,104103,45,174,1872
7537,-3121,616,1370,-3490,158329,17138,-1013,2063
7537,-1482,4755,559,3322,133024,9984,-2341,2521
7537,76,5541,285,3150,120060,8007,-2162,3129
7537,1750,6799,-59,3152,99488,3768,-1187,2463
7537,-419,851,-837,-4864,162528,24086,-429,4679
7537,213,1001,482,-2990,137892,18155,-504,5181
7537,3181,3121,254,1245,105504,15883,1145,-2691
7537,5317,3981,54,704,98241,10315,671,-3019
7537,-2957,12563,911,10356,8164,-24620,-1103,-855
7642,1694,5191,328,7649,68573,-98,-1137,4540
7642,-1306,9631,1119,3608,-102,-20021,-300,4155
7642,-259,7455,-87,5102,13698,-15688,-1346,3115
7642,-852,1438,-1098,-1209,96685,5633,-3168,6962
7642,29,975,-683,939,91329,3459,-2690,8671
7642,1761,1488,-499,2492,79811,-206,-1941,8490
7642,-1959,769,1367,1932,75022,9637,938,-3260
7642,-1601,2268,1128,1243,60835,5837,922,-3406
7642,-390,-3363,2106,2780,109511,17549,-86,-3189
7642,-1781,-2316,1724,2728,95496,12662,121,-2981
7691,2502,8214,1275,7134,12536,-17746,403,-1070
7691,-51,7491,962,6099,11790,-15044,-218,-382
7691,-2716,2065,1811,7065,56375,-1908,-1912,746
7691,67,9850,358,5100,5201,-12908,-898,-6875
7691,1915,8011,32,4837,14244,-9093,-1001,-5516
7691,-2148,-2146,496,4000,92640,12318,1206,-2275
7691,-1562,-1325,535,3088,86598,12877,1199,-2195
7691,-1574,-131,566,3721,75034,10039,1100,-1972
7691,882,-735,-1082,3252,69836,6059,101,-1136
7691,634,-559,114,3806,64443,3994,-108,-2949
7740,366,2825,12289,2920,10700,-13338,1243,-4929
7740,-2528,-2089,9090,-179,65688,7582,-64,-3273
7740,-2741,-1484,4456,-146,72769,10145,-91,-1648
7740,6300,-1066,5736,777,63853,5444,-1502,615
7740,2358,849,3101,70,57424,4292,-662,796
7740,290,5626,-326,4115,-80,-15702,477,-531
7740,-2522,4183,518,4452,7940,-13862,-149,391
7740,-5935,4747,795,5490,-186,-16897,-399,979
7740,-2081,-4496,-740,-1678,81374,13047,-1806,7320
7740,-4132,-3160,-80,-3841,70263,11134,-1418,7102
7789,1491,8092,-451,8077,-15396,-22381,-520,-3244
7789,2497,5172,-217,5970,9297,-12755,-464,-3506
7789,-435,4142,-124,4668,15015,-10095,161,-3448
7789,-1937,-8161,-863,1825,102366,28794,-70,4254
7789,-4116,-7016,-751,2051,91079,22976,313,4073
7789,2649,-1610,-2571,3119,72677,8233,-815,-525
7789,4618,-1494,-2850,1165,66493,7597,-905,-543
7789,2664,-435,-3212,1659,57910,5553,-799,-499
7789,2959,8236,-356,3759,4744,-12502,-381,-4553
7789,2620,6357,761,3685,9486,-10924,-459,-3049
7837,1353,3235,789,-123,14466,-9672,-432,2994
7837,4328,3268,-1176,-2967,18823,-3834,-101,2394
7837,4655,517,-3141,-4246,58197,10251,-272,1412
7837,652,-4081,-608,3730,68289,11284,191,-726
7837,4061,-2919,-580,3128,62795,9872,-105,410
7837,7024,-7811,-808,308,110096,24536,351,-281
7837,2720,-7528,-358,1737,90339,18327,-133,600
7837,-2704,-6170,629,940,67071,10986,-843,1223
7837,4425,-1275,16,674,56676,6747,490,775
7837,3880,-102,183,-1454,45656,5823,1193,-660
7885,1193,3314,2298,1724,2499,-14148,-526,-931
7885,3675,3937,1641,2325,5647,-13412,-831,-545
7885,3436,12197,1539,5973,-64250,-39880,140,-1306
7885,-393,-4506,679,-3014,65798,12814,-1617,7388
7885,-1516,-3779,-460,-3618,58333,10863,-1562,9340
7885,-1452,-5077,5072,-612,56925,6851,-2425,5404
7885,267,-4550,4335,1459,52709,7401,-1472,1823
7885,9017,-1745,1043,-4746,69225,14341,-155,-2941
7885,8967,-857,1060,-6095,59578,11968,57,-2881
7885,7103,-562,2081,-8863,43472,7714,569,-2407
7934,1382,-6161,8474,-3383,48353,5405,-1740,233
7934,-723,-5278,5416,-1977,47877,5055,-1533,477
7934,1996,2939,2092,1053,-18100,-18452,-494,196
7934,7487,8260,-3005,-1250,-8186,-18540,-2168,469
7934,3943,15054,-3783,1383,-62395,-38061,-1377,-627
7934,2301,-3236,1287,-3080,63239,12141,-187,-1443
7934,4390,-3026,3169,-4214,58805,13069,718,-1343
7934,2645,-2408,4180,-8214,48677,11536,1437,-1054
7934,-2343,-2693,-175,-10916,43841,4202,-937,-7305
7934,-1742,-1631,-566,-9369,38671,2529,-447,-10285
7983,6196,5730,-1591,-5548,-14140,-14574,1781,-4702
7983,4562,838,-1356,-9012,22252,2384,589,-3479
7983,3200,-3400,-237,-11102,48786,12388,-278,-2758
7983,-1185,-295,19,-9873,42609,10264,-1374,3057
7983,-1595,113,250,-9678,36679,8100,-1102,910
7983,3015,7973,8389,-1567,-29985,-22875,723,-1197
7983,3721,12246,5181,1625,-70647,-38067,715,-1225
7983,6684,11376,1104,1658,-62357,-34594,-114,-703
7983,3575,-5123,1848,-15204,55048,19057,639,-51
7983,320,-5246,1659,-14932,49896,16675,383,703
8032,4276,3112,1423,-7804,-36689,-18919,755,-1966
8032,5299,-162,1794,-9481,-17096,-10345,515,-1380
8032,4430,-910,1380,-8895,-3737,-6329,353,-1533
8032,1641,-5069,136,-15566,67771,21951,661,-1625
8032,3648,-3493,-915,-11717,61856,18771,354,-1773
8032,-190,-5732,-1138,-8031,48740,13442,-1238,2609
8032,-774,-5310,362,-7797,43592,12195,-968,3061
8032,8,-3746,928,-7556,30128,7425,-818,3253
8032,4917,-6337,6360,205,61827,16280,-2338,-1577
8032,5166,-5767,4972,2585,67130,16270,-2179,-2749
8081,999,-1693,1043,-8626,31799,8432,-2359,8854
8081,775,-3105,1287,-8442,42561,10837,-2752,11888
8081,1264,3610,1261,-4936,-16760,-13499,-2103,12679
8081,-793,5936,4995,-4231,-34824,-20649,-1251,-438
8081,3225,5540,4946,-4975,-18235,-14290,-479,-1801
8081,-28,-5012,-2078,18,55837,13189,-451,-1526
8081,1818,-4013,-903,-365,52183,11956,-104,-3965
8081,1318,-2582,-1330,-1760,44698,10188,465,-5976
8081,3586,-306,-2778,-7730,30845,9360,453,-485
8081,636,-1230,-2234,-6134,30582,8512,-26,464
8129,6550,2769,-1903,-6293,-13195,-8941,747,-1667
8129,4626,-1405,-1979,-8238,23848,7689,96,-1625
8129,4010,-3254,234,-8482,39474,12629,-62,-1344
8129,793,-3174,-1010,-8635,32846,10169,256,-1597
8129,2154,-2735,-1251,-7295,29155,8058,114,-1183
8129,1793,5409,-919,-6273,-38720,-16724,-402,1671
8129,43,5544,-1005,-6429,-39442,-16283,-97,1181
8129,-10158,-3585,-1651,-10605,40893,15543,-1533,5023
8129,-7775,-2501,-2144,-8078,35767,12972,-1308,3389
8129,4795,-3074,-2378,-9151,30899,10756,-184,2389
8178,7411,8922,-2149,-7121,-49074,-21168,1204,-7213
8178,6861,7155,-3041,-7791,-30261,-13467,1140,-6346
8178,651,-6769,-1191,-9677,93097,32646,-3495,2544
8178,2247,-5284,-1204,-6456,77567,25546,-2865,3324
8178,387,-3679,-944,-3445,54576,16375,-2059,3633
8178,9519,-4407,-6455,-10387,26484,10508,651,-5166
8178,7332,-2995,-5895,-9751,23531,8856,439,-4674
8178,6493,8750,-1846,-6079,-54261,-21786,1710,-2245
8178,3689,7947,-870,-6596,-43971,-17382,1334,-1854
8178,6738,-3399,1145,-92,30375,8627,802,-1616
8227,1974,3264,1685,5924,-26411,-15000,-807,-260
8227,133,-3049,1464,-1545,26162,8712,-1274,602
8227,307,-3356,1200,-3793,29039,8966,-1110,1125
8227,-840,-4953,5619,-13144,21033,8833,259,-1779
8227,2589,-3342,5040,-9926,13839,4840,244,-1811
8227,3134,-9156,7122,-13997,61842,23978,-316,-612
8227,2527,-7218,5091,-13417,48373,18669,0,-404
8227,-704,-3904,1621,-4926,21910,9567,-1121,4264
8227,-545,-2052,1013,-3597,15759,7377,-859,2605
8227,2154,601,-186,-2270,5031,2754,-244,264
8275,8055,4837,8988,953,-27385,-12787,1409,421
8275,6846,2540,8438,2024,-16161,-9170,396,5027
8275,-1025,-1722,-106,-5249,20228,6892,-720,-235
8275,2528,-917,-293,-4591,16401,4863,-661,-1056
8275,2734,-79,237,-2861,5912,-262,-412,-1476
8275,3687,-1602,-590,-1859,20903,5276,-705,-253
8275,2063,-709,-968,-1401,16892,3197,-444,-557
8275,2053,-4583,7275,1995,58953,17858,-2640,-1228
8275,1918,-5210,6805,-3576,66888,20382,-1396,-3332
8275,7142,-1510,9034,541,15556,3168,578,-6303
8324,6898,1746,-10302,-4481,-11114,-1389,609,-3257
8324,4216,-1687,-10274,-5351,20193,10424,378,-2475
8324,4778,3148,-9146,-1723,-16721,-8210,658,-1443
8324,1690,3343,1850,1256,-22211,-13013,-803,-1363
8324,-1068,9424,2087,5707,-72659,-35502,-273,-1043
8324,6999,-2397,1103,-2100,25728,9061,1022,-3268
8324,5552,-1083,121,-967,17318,5237,563,-4586
8324,-288,-1781,-244,1784,22771,14374,1544,-803
8324,379,-1177,-866,1013,18613,8765,1385,-1541
8324,1199,-2074,-2049,-3210,24790,9084,-1145,4765
8372,4809,4177,165,4426,-30931,-16330,-385,-2353
8372,3979,2039,139,1099,-15981,-6838,351,-3736
8372,8907,-798,3988,2116,21673,6999,46,386
8372,4748,-643,1753,-1725,17197,5414,-880,173
8372,2825,608,-301,-6850,3741,327,-1261,-361
8372,3563,5013,-1095,4073,-22266,-11656,-589,-236
8372,5389,3439,484,2678,-20529,-8829,-663,738
8372,5029,874,-548,1815,24809,7221,-1631,-363
8372,6117,1306,-571,3349,16591,3807,-961,-870
8372,4503,-6619,3162,-2221,16935,5433,626,-3438
8420,1261,11283,-5743,4578,-32205,-16637,429,-2344
8420,843,15882,-4961,5906,-57677,-25633,513,-2055
8420,3132,-10114,1906,-2526,67624,23375,-1270,218
8420,2690,-8343,1527,-1127,53729,17955,-1147,490
8420,2643,-6135,1577,261,35064,10831,-872,267
8420,-254,-1582,-1427,-1505,22169,8103,-1071,767
8420,218,-736,-1784,1701,17981,5251,-745,99
8420,6482,2536,1161,5086,-26552,-15274,-2736,4736
8420,5660,2777,1471,5866,-27223,-17135,-2793,3743
8420,2835,-3101,-116,-757,18841,5818,-996,1469
8469,-3210,3854,3150,4715,-22861,-12844,-974,5543
8469,203,-870,2094,-4131,15541,5657,-2156,8535
8469,-481,-6134,8991,4039,20144,5886,1289,-2790
8469,-1198,-4062,7536,3216,16471,4732,1274,-4097
8469,722,-1836,5944,2418,3687,-192,1024,-5065
8469,5726,-3007,-2427,291,33302,14243,-424,1711
8469,6767,-2573,-2130,-1189,26028,12076,-286,554
8469,1341,-100,-4674,309,16249,4978,-48,-644
8469,1100,220,-4683,1159,9556,1456,-673,-22
8469,3965,4131,-637,4228,-27458,-11833,94,-2543
8518,1039,3792,2690,-2,-25214,-12689,-288,-1931
8518,960,-1070,-1591,-1869,11431,4336,-1047,-1767
8518,3181,-4569,1162,3631,20535,6648,48,712
8518,2606,-4486,1118,2597,16817,5527,615,-1200
8518,1909,-2463,1474,2453,6165,1101,1134,-2616
8518,3490,-536,-2633,5410,11179,2879,-1336,-1622
8518,1301,616,-2643,5560,5737,95,-1309,-1902
8518,-962,-4405,1342,4625,32617,9108,-1468,-7
8518,-3383,-3395,209,6544,27287,6772,-992,-61
8518,182,2169,-3414,-955,11396,6825,-1802,9397
8567,747,4641,4396,6304,-60614,-26847,1772,-9205
8567,197,1815,7655,5283,-39601,-18921,1017,-8221
8567,1249,9368,-160,1937,-57420,-25088,-2057,438
8567,1768,3511,-791,-993,-16709,-862,-1255,-1473
8567,188,-6578,-1837,-8428,61485,33787,-180,-2807
8567,3462,-1715,2133,4512,26726,10151,345,-398
8567,4190,-2006,-1092,4537,24456,9034,208,-572
8567,-209,-4855,3100,-265,14507,6390,-571,-966
8567,-2428,-3963,4284,2131,8143,2348,-754,-710
8567,-1292,-1332,-741,2517,24330,7835,0,-2620
8616,3442,3,-229,4592,14590,6592,-489,-3477
8616,2909,-760,-761,5105,21592,7600,-253,-5235
8616,2803,6175,-958,8113,-34933,-17237,540,-5934
8616,840,352,-3551,88,16685,5126,-1036,-805
8616,-334,1114,-3140,1406,11754,2864,-573,-1083
8616,-471,2706,100,2372,-5695,-4609,-775,-678
8616,-313,-5012,-1131,89,62018,21949,-1359,-589
8616,-2084,-2134,247,-1775,13285,6235,295,-1851
8616,-3276,-1630,-311,1905,9924,2910,-604,-1323
8616,-2719,-345,-474,2950,495,-1170,-611,-953
8664,-2395,2502,-6572,4340,-35796,-18785,-1923,-775
8664,-4993,1315,-4331,3306,-23278,-14246,-2288,-754
8664,3599,-2067,79,1271,27167,10304,-344,9568
8664,837,-1250,-1184,2106,20722,8476,-1140,9871
8664,961,341,-2046,3027,8169,3386,-1526,8213
8664,-3254,-1419,-142,3871,13277,4631,-1879,-472
8664,-1924,-546,79,3601,7834,1111,-2090,85
8664,-1631,-1964,1149,5136,35646,12982,-631,1705
8664,-212,-1992,-179,5015,29816,10071,-760,3709
8664,-1172,4206,-1220,5372,10362,2905,-1303,3338
8712,-4032,-407,-4396,1720,-7203,-3938,-49,-4052
8712,-567,5913,-3471,4467,-49304,-21493,482,-6422
8712,-5405,3510,893,7740,-24900,-13306,815,990
8712,-4714,2825,1216,7275,-23937,-12809,329,351
8712,-2443,3630,1603,7904,-32351,-16738,-170,153
8712,-600,-5199,-633,1913,29350,10416,-1759,-1762
8712,-2187,-3819,-1710,2259,24185,7679,-1624,-1369
8712,-1517,-1187,-344,6146,19152,6569,-1155,-343
8712,-369,-882,-129,5265,16683,5795,-955,-685
8712,-4386,-4375,290,-3738,38046,15219,1166,-2297
8761,2513,4216,2467,1293,-3524,-1188,-2181,-760
8761,1314,411,1771,1410,27863,10166,-1968,-1338
8761,1968,-1303,-4526,2524,13296,5753,-72,-6301
8761,5180,-473,-5342,1818,9944,4066,-140,-6093
8761,3740,936,-5259,2939,-1030,-1532,170,-5356
8761,3142,2031,4315,3690,-27207,-13416,-256,-2585
8761,2297,3297,3130,6029,-24232,-13534,-237,-3292
8761,-970,-1081,858,5052,22742,8113,-2112,1982
8761,340,-284,1350,-307,20598,10291,-1088,227
8761,-3828,-1795,426,1099,12224,1168,-721,-1360
8810,384,6943,1355,3927,-60546,-20465,642,915
8810,1694,5853,380,5129,-45437,-17831,270,292
8810,5211,-5934,-5423,-3061,46495,19372,-1323,-2305
8810,4541,-4186,-7478,-117,39580,15506,-1232,-3263
8810,5973,-2833,-6553,1973,29651,9981,-1423,-3093
8810,-5278,-2961,3356,1252,18139,6939,-813,827
8810,-3824,-2563,2471,2030,15721,6194,-920,869
8810,-3687,4158,-2976,249,-30493,-11759,-1542,1274
8810,-4266,3220,-1060,1521,-27519,-10949,-1261,899
8810,-2764,-1817,1286,3326,17115,7472,-234,1762
8859,2888,-221,6775,6881,1626,-1069,-2556,9686
8859,921,-3278,6817,6928,25477,7594,-3941,16062
8859,2712,2922,5865,10879,-15906,-11480,-3636,19228
8859,-5798,-3424,5514,-8182,17218,9098,942,-5621
8859,-3856,-2476,4935,-4250,12244,5784,617,-4562
8859,-1306,-1209,-1562,241,33965,11605,633,-4937
8859,644,-1999,129,892,25765,8210,818,-4613
8859,512,-4851,2895,-35,17311,4552,-734,-3001
8859,-1146,-3261,2820,2895,15408,3516,-822,-2488
8859,-464,247,2221,6127,6345,-499,-460,-2143
8908,3598,4014,2934,5042,-14894,-10096,284,-915
8908,157,-1844,5773,2928,26506,7748,-271,-2477
8908,1374,-421,5922,3956,14807,2622,71,-4320
8908,-3159,-514,-1157,1616,12527,-872,141,-4320
8908,740,-764,-921,3847,10638,-1431,241,-3639
8908,1861,-2985,3294,1231,9445,2278,-394,-1476
8908,-604,-1462,4425,-5671,-5826,-3497,-333,-1777
8908,-1346,922,-1705,1232,26969,9939,-1251,-2480
8908,121,1415,-284,2309,23191,7522,-1034,-2360
8908,1384,2439,2175,3930,11720,1609,-646,-2318
8957,685,6628,2505,3311,-57500,-26330,-995,6282
8957,-1799,6993,1840,3774,-49574,-21482,-945,3506
8957,-1983,5448,836,2904,-30880,-12774,-775,130
8957,1011,-3565,1382,1794,27310,9241,-1595,-4947
8957,1143,-9839,-1202,-176,67741,24247,-1484,-4926
8957,-2241,-2769,5207,-125,16945,7582,-28,579
8957,-2736,-2090,7827,-1394,14934,6487,-249,251
8957,2099,424,-5295,4842,9158,3599,-761,-1634
8957,99,-913,-4677,5013,8186,3068,-590,-1151
8957,2956,1707,-3901,5745,-14861,-7480,48,-1155
9006,-119,-31,1876,3864,-10041,-4867,-717,-960
9006,223,-3050,351,1614,23164,8255,-1167,-942
9006,1308,643,352,2973,-3728,-4790,-816,-708
9006,911,-1495,966,-1057,13683,5755,-2197,6596
9006,512,410,749,-1016,8082,3324,-1105,4771
9006,2045,-495,-490,-244,42429,14911,-93,-1374
9006,2985,1799,-1945,1421,32682,11219,614,-2513
9006,-637,472,-2276,4086,12268,-250,-183,-2933
9006,906,498,-4834,3578,11585,1651,70,-2286
9006,-1130,1065,-5668,3436,4705,3121,662,-1515
9053,586,7544,1384,5111,-63809,-26090,-53,-4569
9053,-956,6264,607,4612,-46818,-19578,-78,-3911
9053,-1183,-4790,-2619,2288,27647,11190,-807,-543
9053,-2625,-3848,-2820,561,24110,10196,-673,-761
9053,-1601,-2560,-2346,-3916,17194,7800,-366,-959
9053,-2331,-954,-829,1307,10565,3789,-1200,-794
9053,1197,143,-150,1536,5735,1489,-849,-667
9053,3365,527,-3665,4330,36518,13025,-1225,-1549
9053,2797,127,-278,6357,26799,8788,-991,-281
9053,-1185,-2777,-1567,1183,7065,3020,-1045,-2525
9102,-2668,4795,1062,4262,-24779,-12048,-1067,-64
9102,-1384,-1566,1505,2038,12192,3966,-1029,255
9102,-1499,373,1719,4569,-10741,-6908,-602,-348
9102,1681,3084,3360,4570,-34708,-16906,108,-4564
9102,4007,4270,3668,4270,-32980,-16436,418,-3660
9102,-4030,-2547,1106,5939,24258,7014,-1067,1989
9102,-3125,-2347,1840,5019,18382,4469,-732,1320
9102,2583,2816,-3664,-391,10423,5316,70,-3701
9102,5017,3209,-2452,1828,7834,4469,337,-3236
9102,5010,4006,-444,1769,-1803,500,454,-2337
9151,-4203,-4209,2300,2260,16409,5920,-1349,590
9151,-4216,-3887,1558,3744,18560,5371,-1297,443
9151,-3323,4160,924,8275,-38151,-19922,-670,356
9151,-2398,-1817,1642,-711,10583,5063,-441,-365
9151,-2694,-1531,1135,-545,8480,3794,-487,-698
9151,-6531,6671,-371,-4802,-28705,-10722,-771,2356
9151,-5010,7851,-889,237,-29458,-13144,-731,1623
9151,-209,-3791,-722,1032,22887,7861,-892,-1
9151,1264,-2877,658,1929,18126,6079,-220,-600
9151,-4400,-1761,1343,1774,15458,4893,-1529,-648
9200,-2182,9019,705,1806,-50541,-22655,128,-2149
9200,-3204,8677,735,4626,-56187,-25118,-345,-3078
9200,3450,-5882,939,1447,42914,14662,-563,-5914
9200,1440,-4969,989,1799,34841,11775,146,-6435
9200,1510,-3154,2943,2186,20379,5867,579,-5629
9200,-6746,-3179,1254,389,17940,6263,-1641,2123
9200,-7116,-2088,640,2037,14577,3928,-1849,2072
9200,-152,5419,2092,5108,-24565,-4830,-330,861
9200,1715,4984,2995,5218,-22554,-4150,7,963
9200,1052,-2134,-7,683,18835,7532,783,-164
9249,-790,9182,-2673,2403,-24675,-12746,-1820,-1012
9249,2553,3418,-3281,494,21783,7301,-2004,-574
9249,1569,-5125,13587,-2751,16610,7543,-82,-469
9249,1046,-5162,14270,-2927,13122,4892,-124,-359
9249,-1849,989,11510,2316,-27659,-15079,-459,771
9249,947,-4480,-2587,435,34467,12943,-821,509
9249,-1251,-4345,-2795,1111,27978,10091,-1040,1316
9249,-9828,-3056,-190,-133,17733,5613,-1633,2661
9249,-9497,-1525,726,1953,10138,2336,-1501,2815
9249,-961,2346,1051,3713,-21951,-12455,-759,-1531
9298,-2162,4410,-1622,6379,-23474,-13938,-1292,3016
9298,-200,311,-2459,518,10821,3789,-2283,3891
9298,-2274,1515,3288,-2776,15726,6418,-1139,1265
9298,-904,1568,3784,-3014,10275,4154,-1035,782
9298,2617,1750,3110,-3114,253,745,-419,-376
9298,-1851,-9,-5,2330,7863,2667,-2226,10097
9298,-1082,6932,255,5398,-39462,-18959,-2051,11037
9298,-1966,-3961,-2470,4782,30513,8374,-1620,-5165
9298,-2911,-4439,1466,6126,26436,6647,-1722,-4346
9298,1248,-1154,-2291,-805,14456,5771,-378,-2884
9347,1359,7480,-1042,5447,-56068,-24533,180,1008
9347,-1351,4233,-160,4678,-36273,-16129,154,-136
9347,-1517,9255,-2399,6350,-49757,-25525,-1182,-455
9347,101,3300,-2088,1488,-7355,-5634,-2263,-1121
9347,-2067,-5861,-1628,-3546,61352,23560,-2514,-1547
9347,-3796,-7093,5975,-834,24886,11930,-575,706
9347,-1348,-5262,6600,106,23090,10563,-322,-264
9347,718,-2068,-3767,4695,6486,1163,-363,-778
9347,1466,4807,-2639,9363,-39872,-20306,-647,942
9347,2868,-278,-4524,2675,25244,10072,92,-2150
9396,-2904,-900,-3579,1311,23554,6234,-2140,-1093
9396,-624,-3016,-2302,4720,29681,6110,-2156,-620
9396,951,3486,-430,11894,-24472,-18746,-1272,-771
9396,-1204,-2943,-9446,3147,17893,8096,188,-579
9396,1145,-631,-7948,4004,14348,6762,332,-261
9396,1010,-7729,1018,-1359,65468,25184,-2135,-2845
9396,1765,-6566,1045,2515,52073,17534,-1309,-3449
9396,-4157,-3827,1304,220,12581,6192,-994,3470
9396,-3326,-3159,1306,989,10128,4906,-906,3174
9396,-276,-595,917,2508,430,24,-815,2244
9444,400,3210,-752,4580,-30672,-14405,564,-9045
9444,914,2398,168,4742,-19324,-10453,402,-6688
9444,-627,-3107,887,4738,22255,8291,531,-1728
9444,-1184,-1959,124,3884,17892,6535,184,-1711
9444,906,-16,665,3322,6631,1780,129,-1477
9444,-3493,-1109,1602,-1450,9783,4666,828,-1354
9444,-5691,-1120,2749,-1251,5328,2515,788,-803
9444,2655,-3781,122,-2909,47549,19355,-936,-827
9444,2030,-1845,-639,-413,34685,13300,-471,-1018
9444,2316,3153,731,8632,9663,471,-1386,635
9492,916,9157,-7902,-4263,-9488,-999,943,-2885
9492,1859,13166,-6993,1258,-50713,-19313,1038,-3359
9492,-3413,1259,9274,3004,-33680,-15369,-1172,1597
9492,-1124,1188,7172,2502,-28201,-13353,-1037,971
9492,38,2353,4375,1829,-30496,-14559,-774,326
9492,1682,-2210,-2381,-1324,20846,10837,-424,-589
9492,615,-756,-2368,1677,12327,6016,-340,-2633
9492,5034,791,-1450,1114,11835,5992,592,-82
9492,4332,916,-1341,-19,9363,4695,900,-1292
9492,2407,-6762,1216,-2472,44039,16854,-1358,-179
9541,-573,1877,-28,1975,-2012,-1637,-587,-1293
9541,-2027,-2173,270,1361,26863,9401,-747,-1064
9541,-11048,-1878,234,2186,12466,4194,-1134,2465
9541,-9162,-1366,500,3346,8417,1897,-1333,2717
9541,-9784,231,655,4304,-1178,-2502,-1190,2246
9541,370,6035,-1523,3738,-27603,-14119,44,-377
9541,2947,5356,-558,3950,-25682,-13783,-404,-802
9541,-654,-2758,601,-2738,19662,9246,-1922,1027
9541,523,-2075,-6,-3093,16364,8402,-2263,-197
9541,1178,2024,-1294,10184,14927,3781,-93,-1349
9590,-7167,5079,1400,4266,-54961,-26219,-763,2272
9590,-6015,3971,1246,5250,-40757,-19831,-1128,2659
9590,-1544,-4562,633,-4900,30351,13391,-1394,1053
9590,-3802,-4519,995,-4949,26993,11803,-1126,1247
9590,-1278,-3314,852,-3755,18904,7894,-717,981
9590,-650,-2961,2982,-186,17418,5104,-951,-1465
9590,-1794,-2715,3145,-881,16206,3798,-1190,-1091
9590,-6258,3643,1243,2230,-25751,-13273,-1138,1993
9590,-941,4147,877,3645,-26819,-14255,-919,899
9590,3582,-1662,-113,551,18862,7834,-433,-1044
9639,4200,10,1085,2504,5637,1124,-740,89
9639,1428,-2050,492,346,25557,9000,-573,-274
9639,-2899,3732,99,1624,-17520,-10162,260,-684
9639,1813,-119,-269,-4384,13696,6561,318,-180
9639,1994,1812,-83,-1787,-92,-437,183,-333
9639,5191,-1576,-624,-2183,27510,10989,-679,-2664
9639,3442,-860,-76,1079,21609,7855,-658,-2182
9639,-1671,-2319,1107,4538,15514,4518,-1268,42
9639,-391,-2060,1108,4219,12864,3459,-1142,-72
9639,700,-742,1108,5110,2215,-681,-878,-306
9688,-2206,5773,-1266,2085,-19004,-8816,-776,-617
9688,-415,978,-1443,563,19189,7108,-1166,-865
9688,-1208,2135,-1197,1550,9111,2010,-751,-1361
9688,1248,1427,-1018,1623,11082,4515,-542,-1240
9688,315,1795,-933,2396,8254,3353,-125,-1463
9688,-239,2443,1700,2256,-12161,-6497,-220,106
9688,-76,8010,1675,4741,-58429,-26350,11,360
9688,-927,-3885,1176,-737,32342,12440,-391,-1337
9688,-864,-2155,417,27,26855,9289,-505,-1282
9688,561,-91,666,16,13444,3788,-358,-1522
9737,3208,8738,165,-606,-63567,-24164,796,-801
9737,3394,7758,254,-1348,-54325,-19759,558,-387
9737,3351,4877,1086,-357,-33123,-12478,86,-51
9737,2237,6246,-89,9219,-37622,-20322,-1172,-397
9737,2433,-3942,748,1117,32931,10968,-1843,-192
9737,5562,-3395,-83,-4699,17683,11249,27,-2260
9737,5167,-2338,-2286,-3910,13549,9198,70,-2146
9737,-4556,-2895,783,855,12393,6759,-79,1180
9737,-8129,1097,1151,3004,-19412,-7532,104,1209
9737,-7519,6208,1106,5424,-57648,-23063,322,772
9786,-3943,-535,2956,2324,-3760,1286,-301,-93
9786,-3403,-3763,2254,482,28251,13092,-1477,-464
9786,-1715,500,1825,3613,631,-427,-1474,-872
9786,3832,-531,-856,385,19045,9331,-3,-574
9786,1893,-253,-428,643,18579,8406,-68,-677
9786,6454,-4634,476,2798,44331,17799,-152,-1739
9786,5694,-2570,-164,3214,34198,13931,39,-1681
9786,3130,-1844,2363,4828,13711,8003,-507,-2995
9786,5696,-2101,1894,3386,10531,7306,-816,-2854
9786,4517,-743,749,2889,1253,3440,-1095,-2397
9833,-998,7890,3218,6222,-55302,-21226,408,1518
9833,-2859,5631,2954,4912,-39842,-15442,-161,1309
9833,-2236,-4737,810,1382,30922,13597,505,-1285
9833,-3548,-4349,2195,164,28287,12186,491,-1257
9833,-3862,-3194,3209,58,18636,8012,396,-1063
9833,848,220,-364,485,9688,6570,-154,80
9833,855,251,-870,11,7777,5625,-105,126
9833,5602,-3703,-1503,1850,35996,15068,-477,-2746
9833,3496,-2040,-964,3960,23828,9543,-302,-2598
9833,1574,1377,-1601,5871,9257,4318,419,-345
9882,-5652,3750,-1817,-1965,-38372,-8883,-414,1762
9882,-3975,-456,-1747,-1893,3410,6529,-612,1573
9882,-3933,2895,-1653,1083,-19312,-4679,-75,965
9882,4685,5490,1148,3871,-35759,-10983,4874,-399
9882,934,5694,1102,4173,-33491,-10396,3054,171
9882,470,203,3032,1571,20659,7202,24,-1632
9882,1048,-523,4948,1121,16872,6005,-73,-1527
9882,3101,-967,78,4480,17409,3694,-543,-2573
9882,3667,-421,712,3918,12308,2603,-259,-2068
9882,5331,897,1231,4197,737,-1289,31,-1686
9931,474,-298,-2478,-1698,22779,9955,560,-1841
9931,-863,-350,327,1870,30089,8317,505,-1690
9931,416,6700,2618,6388,-28163,-16741,936,-1355
9931,4131,121,1370,3601,18916,5265,-198,-336
9931,1370,125,1578,3919,14569,3637,-214,-100
9931,6036,6889,-299,9456,-31615,-15514,13,-1545
9931,1372,6360,-942,9738,-26606,-13201,4,-1321
9931,408,-2398,-87,77,23887,9165,87,-635
9931,-174,-2278,306,1369,19178,6949,-61,-177
9931,1535,-748,-173,1508,6740,2153,55,-351
9980,5888,7269,1579,9235,-48119,-22867,917,-1829
9980,2605,7602,1452,8634,-54476,-24053,559,-1109
9980,1862,5267,840,6880,-35636,-16430,131,-653
9980,1773,-4548,-5961,84,47707,16633,290,-806
9980,3886,-3054,-4180,3155,40611,12814,516,-879
9980,-1701,-1088,-952,-272,23299,7194,277,29
9980,-851,-532,-765,-792,17929,4908,23,150
9980,-2930,4308,259,5551,-19118,-12917,-153,52
9980,640,4900,-965,7223,-14309,-11579,-356,3
9980,1122,5769,-1085,6936,-20324,-13311,-50,-28
10029,3938,3884,-193,5260,-11580,-9148,351,-463
10029,7022,-797,-2254,1066,30925,10278,-5,-29
10029,7449,1227,-3083,1119,12877,4782,348,-32
10029,6361,-2149,2005,2891,22154,3596,-411,-3072
10029,4270,2813,2452,3748,-21046,-13610,263,-2382
10029,3818,-2576,-431,-1723,37018,15311,247,-526
10029,2466,-1897,1635,-1657,31498,13465,325,-681
10029,2396,-1004,-2635,2730,21345,7248,-15,-617
10029,-1017,-521,-2284,3107,16949,4597,-722,740
10029,9381,4937,-2387,9535,-19017,-11568,757,-1374
10078,-6166,3323,81,1031,-22275,-11206,101,1460
10078,-10297,-2291,-72,-1395,21707,6250,-449,1538
10078,2062,-2135,-2754,2674,20085,5595,-381,198
10078,456,-1337,-3294,1793,19084,5814,-161,250
10078,2043,-598,-2969,1674,13436,4257,199,159
10078,1745,184,3689,1458,9557,1876,698,-2093
10078,1330,7843,1844,3965,-53660,-19904,1571,-2618
10078,-963,-5589,-1347,303,34847,12440,162,398
10078,-465,-4452,-2201,374,30486,10345,228,556
10078,-10257,-3450,298,3694,17851,2994,-853,2633
10127,2613,9001,-5139,5582,-76695,-25793,815,-625
10127,1466,6386,-2908,4986,-51216,-17203,527,-793
10127,18,8778,-1032,12601,-66677,-26488,1740,-3793
10127,2300,2226,-195,7773,-5525,-2961,1042,-2369
10127,250,-6809,979,3067,68689,22133,-88,-350
10127,2870,-4627,3814,2005,35160,9908,-926,-71
10127,3287,-3430,3475,2212,26913,6797,-1206,-95
10127,833,-4324,-3250,-29,7072,7955,1263,-1103
10127,2679,-2345,-1651,1535,-3986,1802,1068,-1072
10127,5679,-3177,-4352,461,22433,9246,389,-958
10176,-2734,-3399,-406,7954,20373,4835,-636,733
10176,-2520,-3320,-787,8699,26043,5710,-644,1296
10176,-864,4318,-1086,10642,-44485,-18078,422,1526
10176,8921,-1759,-2229,-549,14613,6672,2096,-4359
10176,12406,-956,-2355,730,8478,5156,2355,-4692
10176,-1819,-6803,-4573,-1594,51374,18506,106,281
10176,-267,-5582,-5098,-666,39571,14028,4,739
10176,1747,-3089,4148,1812,944,3358,6,-315
10176,-314,-2796,5049,3864,-759,1239,-69,-444
10176,997,-1944,6176,6537,-8498,-3275,-117,-234
10224,4375,5827,-4908,5526,-72709,-18677,522,-701
10224,2839,4307,-3851,1599,-65690,-14622,705,-63
10224,3291,-67,-644,-7743,-3737,7154,1349,-2783
10224,2793,-483,-140,-5508,-9645,5497,1395,-1685
10224,4135,-357,-845,166,-22822,97,1065,-523
10224,859,-4386,1594,5475,-5608,3407,725,-957
10224,-504,-4067,1299,5950,-9743,1510,494,223
10224,-3348,7919,7355,7937,-116541,-35350,241,331
10224,-1237,4280,7469,7119,-72291,-21241,-308,40
10224,-2319,-3474,-5551,-4150,-121,9305,520,1312
10273,222,-2111,1370,3308,-25392,-121,-132,517
10273,1012,-5202,1388,2845,11643,9606,-246,214
10273,-2283,1765,-3084,4806,-60016,-11673,417,-397
10273,-2125,1392,-2491,6158,-54680,-12021,97,-127
10273,385,1779,-802,7039,-58361,-14326,-5,-28
10273,-5543,-4376,1980,-722,6807,10653,536,452
10273,-3209,-4447,3660,824,7858,7732,110,435
10273,3277,-2382,-6225,-764,-9672,6019,544,-2952
10273,3886,-2949,-4120,-1341,-7797,5835,656,-3240
10273,5478,-4847,-2547,-4105,9584,12032,526,-1287
10322,-3045,449,-187,3221,-69594,-13189,458,-174
10322,-4597,-5521,65,-1805,2121,7810,-89,603
10322,-2453,-3994,-1157,928,-9408,2459,-123,872
10322,-81,-3448,-613,908,-11742,4403,4149,-1052
10322,-2408,-3438,237,982,-14189,4507,3843,-414
10322,3724,123,2369,4521,-68395,-14109,-991,657
10322,4981,1212,1325,5139,-72360,-15541,-953,611
10322,-2711,-4155,-746,2781,-1111,7642,100,-600
10322,-597,-3630,-818,2624,-5602,6250,286,-820
10322,-1907,-1822,-1695,2703,-25308,1309,534,-1204
10371,5273,5978,-4731,4932,-139555,-25612,362,-2012
10371,5191,3555,-4096,5069,-101097,-16138,263,-2053
10371,2752,3572,-1787,7277,-96050,-16160,455,-2070
10371,-4980,-5501,-4108,-1802,4537,13076,-264,1242
10371,-2280,-3992,-5892,-5062,-13816,9522,107,826
10371,1534,-5307,10132,8115,-11063,4160,-268,-704
10371,2276,-4869,5779,8013,-11593,3294,-176,-1597
10371,-7923,-1609,360,5052,-88941,-12744,-207,3218
10371,-9006,-1473,-780,4708,-78434,-11213,-605,3048
10371,-7479,-118,-1292,4651,-81874,-13483,-517,2131
10419,6556,2759,-6500,-2507,-126967,-17156,1170,-2967
10419,6208,-253,-5744,-5565,-74557,-2912,578,-2668
10419,1646,-7237,311,1211,-30142,7014,-118,1454
10419,1477,-5737,-267,2779,-34526,4676,-434,625
10419,503,-1718,-1253,4492,-69107,-5172,-527,-476
10419,2246,-7667,666,-3554,9338,13620,-741,-334
10419,-879,-6701,-60,-2817,3001,11547,-572,-6
10419,-1733,-5911,2248,355,-26064,5409,177,639
10419,448,-4670,2356,2114,-36625,2467,421,337
10419,1348,101,-1857,3422,-118733,-13604,81,440
10468,-1648,-4048,2029,7314,-89055,-9360,-676,1104
10468,-2451,-3371,1908,3656,-91898,-7805,-600,532
10468,-1887,-5317,-1117,-4478,-45930,4407,-94,444
10468,-3609,-6425,-5828,2089,-46927,5343,-548,1871
10468,-2791,-6006,-3871,4958,-46282,2143,-733,1812
10468,2000,-2941,-3545,-3665,-64028,3541,122,-1425
10468,-2381,-1237,-1813,-1352,-104227,-7474,60,-450
10468,521,-6987,9808,2104,-35426,8627,843,18
10468,-3280,-5946,10788,1874,-46958,5212,650,422
10468,-2762,-4410,9357,2009,-65072,689,495,697
10517,-2299,3933,-1702,5775,-223865,-29857,-2148,-6
10517,896,3139,-1389,4681,-201619,-24901,-1302,-488
10517,652,1561,-1597,4358,-160162,-17383,-273,-945
10517,1368,1896,-2661,8210,-173976,-16715,-857,1640
10517,-1092,162,-860,3479,-134528,-10199,-653,1312
10517,-3045,-7960,-6723,-1273,-40088,11438,-462,1941
10517,-2128,-7479,-4897,-2203,-48950,8859,-431,1788
10517,7985,-4348,-3167,1741,-69076,6892,1164,-2667
10517,6884,-214,-2086,4388,-140006,-9317,1180,-2666
10517,5197,4423,-1158,6394,-222292,-25620,1022,-2138
10566,-2625,-3644,-8301,1899,-104311,-45,-22,1160
10566,-1939,-7787,-6022,4638,-24583,11730,-662,1197
10566,-269,-3786,-2222,7887,-90298,-3764,-352,758
10566,-176,-5008,-3545,-2179,-69172,8709,360,2355
10566,-1344,-5019,-2173,-1317,-69838,7132,213,1621
10566,-3033,-8612,183,-490,-32721,15298,-1171,1538
10566,-1421,-10318,846,-1438,14100,20743,-774,830
10566,73,-7021,3116,7420,-68461,4823,-19,416
10566,2092,-6155,1613,5600,-71641,4027,92,316
10566,-542,-3926,749,1419,-92491,-806,303,431
10613,-4693,3274,1424,6097,-248088,-24146,471,1840
10613,-4554,790,977,1968,-198769,-14342,361,2244
10613,-4546,-6442,-4519,-1169,-70316,9273,-16,2746
10613,-7301,-5829,-4096,-1597,-74617,7641,-278,2721
10613,-10092,-4545,-1655,-824,-91543,2215,-354,2418
10613,2099,-5864,5093,-351,-86117,2767,474,-1886
10613,2024,-4668,1117,-1479,-89051,1785,1003,-1451
10613,3024,-7104,6966,1543,-67193,7224,-1343,1317
10613,1330,-8770,5888,749,-27548,11429,-1110,1399
10613,3155,-2474,-6120,864,-109350,1365,700,676
10661,-5662,4156,749,-1352,-251209,-24499,54,2279
10661,-5653,-1146,1454,-3122,-142360,-5249,-618,2382
10661,-7707,2964,-3382,7926,-260359,-26127,-573,3267
10661,-4699,1152,-1413,7461,-219225,-20381,-895,3295
10661,-3567,2380,63,5444,-220704,-21386,-427,2553
10661,10004,-5621,7124,-2039,-47217,11340,946,-1183
10661,9120,-5358,8682,-936,-47000,9251,1047,-855
10661,-6740,-3231,-5456,-3607,-85606,4743,132,2032
10661,-5403,-2426,-5630,-4255,-97214,1824,319,1661
10661,1233,2433,-2074,2078,-195266,-12116,-119,-920
10709,4264,-2703,2113,808,-98438,1080,84,-1654
10709,4688,3015,3232,-212,-211653,-16947,1063,-1609
10709,-2880,-6025,4153,4158,-76144,3688,-472,2803
10709,-4549,-5627,3893,3084,-78296,2176,-580,3041
10709,2119,308,4441,-1227,-143493,-5770,716,-2422
10709,5921,6030,5403,1596,-256374,-25448,1270,-2702
10709,5397,4512,5551,870,-229873,-20481,970,-1717
10709,-5732,-8634,15707,-1526,-34905,10544,-577,2612
10709,-6401,-7744,18627,-1398,-36876,8935,-319,1887
10709,233,-2714,-118,-3169,-74882,5872,467,270
10757,-1367,-886,4701,-3503,-109264,9,424,927
10757,-3812,5522,6127,1229,-234728,-23020,856,848
10757,2986,5132,7567,-2420,-263668,-23891,-744,-1192
10757,2469,-4820,9410,-3989,-68675,6812,-1520,-631
10757,1529,-6167,16007,-1955,-37635,9553,187,556
10757,506,-5910,16138,-931,-38693,8256,72,591
10757,-1115,-4688,15191,143,-57037,4242,-47,681
10757,4428,-3268,5730,-3177,-71416,4444,702,1278
10757,4221,709,7280,-436,-147621,-10407,562,1836
10757,-6995,-4672,15476,-4606,-44727,8016,588,3033
10806,-3261,-1582,12247,530,-133369,-6937,-984,1284
10806,-2559,-5563,11245,-336,-35398,7529,-1685,896
10806,-3745,-4565,18119,873,-47766,3739,-349,1532
10806,-1801,-4604,20291,1328,-55257,717,-496,1475
10806,-3923,4920,14679,4010,-230969,-21813,-522,1638
10806,-2520,-4412,12883,1406,-23795,10505,-1205,1410
10806,-970,-6675,12669,2122,31855,16460,-878,983
10806,1158,-3841,18357,-6783,-45386,5328,478,888
10806,-922,-3600,17709,-3319,-53126,2230,128,994
10806,646,-2212,3488,-1982,-82609,-406,120,739
10863,7424,5302,15446,4076,-239599,-26627,17,325
10863,5831,2661,17616,2731,-192642,-19730,-297,194
10863,480,-4694,13497,-4072,-15804,9803,-76,390
10863,-667,-3975,12037,-4925,-26109,7297,-315,671
10863,-2532,-4660,15929,676,-49667,3140,-1053,1782
10863,-3721,-2264,10960,1867,-70487,673,62,1289
10863,-1435,-5302,14676,-3250,-43101,6189,-619,528
10863,-1235,-6353,12505,-5874,1514,11985,-211,-256
10863,-8176,-3946,25448,3372,-54348,1898,196,-58
10863,-6989,-2776,16791,3022,-56046,1565,327,-208
10912,-773,8926,17334,-1305,-270746,-31613,893,961
10912,1164,6042,16733,-3988,-214677,-22063,667,864
10912,959,4463,15992,-1066,-185236,-18569,574,842
10912,-7353,-3103,13200,-2946,-1674,11871,-144,2932
10912,-6595,-2391,12574,-9130,-14352,10266,-65,2732
10912,2511,-3393,16894,1264,-29155,5562,930,-1091
10912,4272,-3367,17343,1239,-27148,4573,657,-1245
10912,3878,-3056,17981,707,-43102,1262,529,-1155
10912,-3384,2095,17307,2765,-149037,-14240,-35,1357
10912,-2750,-5310,13182,-1885,5349,11488,-326,1151
10961,-1164,4290,7752,4580,-181525,-19223,904,-83
10961,3528,-650,4103,-1435,-34411,3869,659,-37
10961,2811,6374,8375,2475,-186333,-22521,928,-6
10961,-2406,2608,10792,1916,-168628,-16901,-316,1417
10961,625,1951,11812,2985,-151151,-15223,-102,699
10961,-6982,-7906,18429,-5756,36197,11179,-701,3738
10961,-5585,-7234,19093,-1874,26460,9623,-750,3441
10961,-3182,-5721,18477,-2060,1313,6793,-232,2677
10961,942,-19,6856,-1041,-22517,8295,2246,-592
10961,630,1059,6717,-2039,-24516,7160,1984,-153
11010,-601,2930,12725,1177,-165038,-19405,126,1559
11010,-2876,-1305,11336,-8966,-79267,-1347,-119,1696
11010,-2457,-3926,8931,-9420,423,9255,-297,1384
11010,1393,-3361,10889,4818,-19924,4780,448,-1624
11010,2273,-1360,2910,5920,-27377,2629,670,-1911
11010,-1107,2903,10345,8295,-160655,-19202,-390,2618
11010,-410,2334,9994,6442,-143270,-17230,-425,2386
11010,-350,3378,9505,4006,-157623,-19819,-266,2087
11010,4841,-3929,4614,-1961,28780,11013,694,-1262
11010,3512,-2721,3702,-2138,10565,8196,697,245
11059,6641,7088,10277,6367,-222923,-28212,1019,224
11059,2195,5063,9381,6301,-171229,-19861,538,1114
11059,-2088,3329,8751,8586,-129325,-15441,-108,2117
11059,-6304,-8708,12421,-4252,90665,21482,-2,2046
11059,-4347,-6901,11874,-4214,59463,17934,402,1326
11059,-869,-1811,4638,1168,10629,6649,-465,1407
11059,1350,-1548,4943,-1320,9031,7054,-349,1645
11059,828,-1050,5434,-2746,-2781,5016,-224,1544
11059,-4022,2542,9380,8020,-138075,-16111,-106,1926
11059,-1700,2539,8631,5033,-127709,-14510,-44,1208
11108,3550,16,3705,-4182,-40416,3981,231,-277
11108,3300,-1344,6015,-3708,-218,8730,365,-276
11108,3502,4947,8986,2020,-132959,-15525,607,-411
11108,-1227,-3367,7838,-1316,7683,7375,-168,1274
11108,-933,-3093,8614,27,2491,5917,-25,823
11108,-3355,-5505,1168,-2715,61538,16149,-758,1681
11108,-2075,-4678,1597,-2100,43835,13443,-281,1149
11108,1324,-3510,3361,-1357,24750,9427,-9,728
11108,-435,-475,2065,-6617,-14299,5265,361,1132
11108,-2465,-1297,2833,-4969,-15404,3571,-77,1908
11155,-2318,5604,2571,1061,-187272,-21882,-430,-220
11155,-3297,3228,4812,5633,-135318,-15122,-722,-552
11155,-1070,4049,6369,9243,-155489,-20217,-633,-810
11155,-8045,-3645,8016,969,3236,5146,-123,1843
11155,-6534,-3221,7078,747,-3442,4433,16,1758
11155,-992,-2105,4063,-6929,-8120,5574,363,238
11155,-299,-684,3876,-6578,-22796,2996,645,-640
11155,-1871,-7529,3858,-1515,79003,19328,-1446,2434
11155,759,-6941,3648,-1312,86243,17969,-923,2274
11155,-438,-3335,3727,151,32613,8655,-330,1687
11204,2864,-1250,6835,2180,-63818,-3446,310,-562
11204,2215,-3628,6890,1171,-8358,3273,-169,279
11204,1392,2537,7784,3397,-132496,-17629,411,847
11204,-6922,5152,1954,9943,-168828,-23198,-696,3315
11204,-5049,11340,5966,10973,-310781,-44605,114,2993
11204,72,-4162,8023,4064,24969,6499,-382,-223
11204,3258,-2920,7633,5064,7899,3760,-134,-319
11204,-1160,-2140,3516,-164,2085,6215,416,1217
11204,-674,-1946,3562,-450,-3481,4670,288,1076
11204,-420,-574,3936,-452,-31005,-32,400,1220
11253,-66,1442,5425,2218,-77627,-7040,-23,2314
11253,-835,-2393,2766,-672,25843,8622,-191,2022
11253,789,957,943,190,-33336,-3103,-358,1687
11253,-1260,-1803,3228,-29,-5988,4022,306,1679
11253,882,-914,314,-1261,-14570,2319,263,1711
11253,-2689,6835,5508,4672,-194184,-26307,54,1400
11253,1227,11779,5773,5896,-292898,-40706,601,674
11253,2321,10782,6007,5619,-274107,-37105,548,348
11253,-349,-8462,10247,2126,47265,10751,331,520
11253,-1039,-7135,8199,-1546,37266,9484,171,1541
11302,-4882,7191,805,2997,-186745,-24874,91,2036
11302,-3247,6465,-1051,1991,-166727,-19849,-64,1637
11302,689,4516,-1362,511,-123505,-12539,-72,1496
11302,-504,-6205,2506,-6440,77078,16769,-101,1907
11302,-532,-5730,3846,-3044,68248,14961,157,1533
11302,-3144,-2254,744,-1335,32159,11005,365,1580
11302,-2773,-1891,1038,561,22097,7950,-18,1827
11302,-409,-511,1199,1314,-8561,2755,-230,1859
11302,4565,-1299,1043,-304,-7408,4757,-339,-605
11302,3964,-5453,371,-1377,85429,17397,-398,-651
11351,-3726,702,-2428,2319,-55603,-3634,151,1313
11351,-3216,-3124,-765,-3089,31654,9835,240,1164
11351,-830,1344,1941,-3926,-62228,-5490,1094,955
11351,-2139,4860,4605,304,-129582,-14912,342,399
11351,-1430,3469,4748,-410,-114165,-12964,257,436
11351,1059,-5771,3166,-451,62606,12779,-151,415
11351,571,-4849,3163,832,55363,11269,-41,485
11351,203,-3580,3034,1767,38296,8285,293,473
11351,4674,-1674,1844,-306,15812,8305,570,684
11351,4252,-1162,1282,-2539,9668,7162,394,939
11399,-221,3570,2615,3015,-90987,-11528,625,494
11399,-454,2675,2641,1134,-80311,-7624,220,314
11399,917,-1580,1544,-1144,11971,6693,-52,27
11399,-1219,-2091,4018,3146,22365,6225,322,-1750
11399,596,-1982,4449,3330,16547,5073,279,-1394
11399,-1529,6806,3023,6652,-147993,-21668,-82,1222
11399,398,6904,4218,6142,-161002,-22714,-277,1359
11399,-1207,4599,5254,4961,-124087,-17234,-555,1670
11399,-1328,-3548,573,-2051,60384,13020,-56,2422
11399,1481,-3288,3377,-1381,36840,9011,76,999
11448,-1977,6522,-1260,1353,-160357,-18723,551,903
11448,976,4005,-423,1140,-108167,-11234,252,733
11448,525,-8392,-1162,-6852,136931,28765,-459,272
11448,-494,-7405,-2913,-10141,138575,27458,347,355
11448,-1776,-4469,-2759,-7448,79987,17056,497,940
11448,-2450,-3293,-138,2270,23418,7743,943,626
11448,-3735,-2950,1258,-377,15715,7010,991,253
11448,3931,6749,-2121,2813,-162946,-21281,624,873
11448,1546,5643,-3342,3717,-144929,-18777,292,1014
11448,-2537,-3478,401,164,28888,7917,-346,2318
11497,-2390,6342,3343,-1750,-138583,-19873,299,1802
11497,-4298,-72,3546,-4493,-24344,160,-48,1544
11497,53,379,5079,2672,-52601,-6990,607,523
11497,-536,-2192,2753,-1642,29165,7964,553,-279
11497,-559,-694,2310,-904,12424,4891,587,-66
11497,-3232,-6595,2089,3744,124620,22077,-597,3583
11497,-5209,-3992,2476,-463,90318,17391,-159,3473
11497,1708,-918,1325,1844,18640,4784,146,663
11497,-90,-121,1199,1666,2733,2564,537,461
11497,799,927,1124,1907,-21664,-1174,782,402
11545,326,4667,2512,2211,-124695,-16055,494,-472
11545,663,3692,2487,3037,-99811,-13125,-655,40
11545,3188,-4657,1855,-5446,27029,5978,-337,779
11545,1444,-3617,1122,-3480,18399,4373,-280,616
11545,550,-1550,865,-337,-11211,-722,-143,615
11545,2849,-1146,-1896,-600,6308,4065,254,-870
11545,1531,-476,-1367,1512,-2942,1896,326,-1255
11545,-4096,-2837,3799,-5622,8461,6885,-1392,2046
11545,-3951,-6995,-223,-7245,118790,21593,-1071,1503
11545,955,-748,-293,802,8653,4343,1271,1620
11594,-6688,3354,2252,2823,-115021,-15455,44,1063
11594,-3944,-2110,1675,527,14736,3955,-398,811
11594,1876,4284,2065,2874,-109989,-14900,-4,7
11594,1462,3942,2876,2362,-98564,-12149,348,918
11594,849,10667,4500,5108,-233510,-33837,1019,1619
11594,-1847,-2536,-480,-1980,42147,8955,35,1523
11594,300,-1687,-1944,-967,24301,5871,180,2055
11594,2971,-183,-1369,-5204,14588,6051,1354,-1203
11594,2207,-254,-586,-2097,11664,5044,1155,-1013
11594,930,-1956,-2534,2534,38606,9618,700,-577
11643,-1355,-2607,1782,-6938,-2765,3166,-494,602
11643,-121,-3198,1334,-4212,30541,6490,-416,-81
11643,2562,4365,2249,1418,-115059,-17875,408,-1194
11643,1233,737,-2542,3152,20760,4777,376,-41
11643,2181,1178,-2704,3026,10370,3015,342,5
11643,-1096,11358,-6080,10239,-271003,-40629,457,2284
11643,779,12617,-3352,10585,-292382,-42911,357,2124
11643,2516,-2950,1731,-723,58393,11394,385,-629
11643,2546,-1920,387,-188,51234,10508,766,-1012
11643,550,240,-903,73,20505,6032,1135,-1054
11692,-438,9643,5663,8597,-175944,-28359,206,1166
11692,-1466,6968,7208,7238,-124878,-18655,351,818
11692,-87,4241,9204,468,-104063,-12017,811,1542
11692,765,-4090,-1543,637,74878,14157,263,520
11692,3073,-3016,-2053,-1636,57094,11660,252,1023
11692,-2240,-2773,-11,202,40250,9111,482,301
11692,2029,-2441,614,380,38602,9109,991,-305
11692,-1244,11651,3420,11205,-265231,-39895,392,1891
11692,-4548,5285,2554,8876,-139492,-17808,-395,1963
11692,-5833,-4873,422,5075,66955,14923,-750,1897
11742,-4899,-4386,1369,5328,65417,10420,-691,1281
11742,-3566,-3371,2102,7044,43826,7273,-644,1531
11742,-3834,1911,3388,5621,-48585,-7151,111,1050
11742,1946,2377,205,-1022,-84325,-10544,-180,441
11742,1418,1709,747,-491,-72214,-9148,-302,301
11742,-1570,-4214,-80,2884,80803,13503,-310,1204
11742,-231,-4227,-1316,943,75297,13084,-79,1238
11742,-673,-3699,-1989,291,54283,9664,58,1241
11742,4087,-638,-4386,-6270,38584,9366,433,-523
11742,4874,477,-3839,-3546,13971,4633,359,-335
11791,-1085,2697,-2198,-4160,-74914,-6613,150,1898
11791,-3648,-3314,-840,-7366,52251,12935,-295,2261
11791,-4804,-2083,-397,-6000,21426,6251,140,2487
11791,-2497,-4358,-1269,-293,37909,7018,51,405
11791,668,-2721,-2479,-881,21523,4586,214,-10
11791,2415,3638,4250,9347,-104126,-13882,138,822
11791,1876,2858,3312,6469,-90556,-12324,-194,919
11791,1131,3730,1627,3682,-108209,-15405,-243,840
11791,3999,-3563,2441,-5404,70240,13131,506,-932
11791,4279,-2660,2153,-3546,50710,9958,417,-512
11839,-2473,2809,-4403,2006,-51743,-6118,545,966
11839,-1446,7989,-2242,2315,-171291,-24114,821,885
11839,-2979,7190,679,2325,-162856,-22319,430,892
11839,-4566,-6898,-1331,-3794,138579,22993,-958,2765
11839,-7463,-5602,-632,-4849,113381,19182,-948,2419
11839,3287,-2087,1404,-1476,50822,9009,833,-1492
11839,1282,-1660,932,-1033,47764,8276,695,109
11839,-4707,-1300,2092,374,35611,5518,348,1742
11839,-4705,3576,438,364,-106870,-14795,-711,2776
11839,-3330,2973,559,-21,-96876,-13128,-711,2408
11888,-1755,-1589,-5083,-2320,8541,4526,-361,552
11888,216,-3171,-2621,-1825,48592,9253,-297,536
11888,-1325,3708,-784,1756,-91054,-13987,332,302
11888,1840,-1243,-4427,1772,39983,7593,-115,322
11888,-304,-1385,-2648,2140,34880,6249,-130,211
11888,5519,-6034,-1958,-11401,90047,18474,248,665
11888,5009,-5175,-1726,-8618,66839,13150,-164,802
11888,4417,-2899,-992,-5048,32724,6674,-456,686
11888,2133,-893,918,1095,28729,6349,512,-1429
11888,853,-108,-468,1428,18241,4597,853,-1447
11936,1857,4753,2414,-877,-121965,-15201,701,-2197
11936,1474,-1888,1533,-3924,17520,6655,64,-1405
11936,3894,-3820,726,-4104,60378,11338,104,-522
11936,-2182,286,-2654,-2162,22883,4597,21,1055
11936,-2298,-37,1574,-2304,20732,3665,-166,1104
11936,-4501,-1173,-243,2038,15790,3193,-50,1227
11936,-4394,-913,139,3840,3354,-56,-440,1740
11936,-823,-5780,3313,3244,100866,13922,-1181,400
11936,-135,-4633,1723,4634,75314,10092,-965,561
11936,2397,1262,-3453,-4984,-1436,3361,492,196
11985,-640,6432,-2448,8050,-134748,-21648,-142,-307
11985,2650,5078,-1766,1008,-111224,-15138,-187,-858
11985,1131,12319,2952,3966,-285619,-42297,662,-310
11985,2467,11877,1572,1694,-259834,-36235,460,4
11985,92,6090,1428,1083,-142881,-17479,-87,800
11985,-5851,-4099,38,583,64249,10569,-438,2634
11985,-3779,-3221,-3939,853,52967,8518,-563,2937
11985,-1798,-3125,-4072,-960,50052,8599,-24,291
11985,-1256,-1837,-4260,-20,28169,5310,212,61
11985,79,-3683,-3342,2130,81019,11767,-40,97
12034,1660,4246,967,869,-108596,-15573,266,-616
12034,1898,-1970,1161,-3344,28691,6163,-486,-48
12034,273,-636,-11681,-5694,30058,7209,464,183
12034,-973,-1462,-7420,-4650,27297,7227,545,477
12034,-3671,-698,-4590,-2190,1397,2453,426,588
12034,1580,9655,4889,13357,-236901,-36951,-77,536
12034,5086,4466,3041,-725,-107251,-15171,109,-255
12034,-5557,-3641,-1023,-1255,66267,10664,-191,833
12034,-2315,-2570,-1064,-3271,46571,7981,87,1019
12034,-1281,-1428,-1131,-3008,17636,4186,156,1290
12082,-2047,7083,-1139,4696,-165078,-25384,35,497
12082,289,5689,60,4082,-141002,-20956,-286,613
12082,2421,-2463,-2465,-1823,85336,15453,1069,-2794
12082,1668,-2082,-2509,-301,78256,14034,859,-664
12082,-3473,-1458,-2050,1482,56872,9633,492,971
12082,1711,-2617,-2546,211,49222,8214,-91,542
12082,588,-2073,-2515,1040,39662,7095,-32,724
12082,2627,9451,1897,6234,-203579,-31676,1184,-1362
12082,2898,8860,2653,6327,-220695,-32971,663,-907
12082,-4278,-4313,1853,4779,72609,9507,-812,1116
12131,-1438,651,2761,-1299,-12994,919,-379,1814
12131,-2029,-2989,-1292,-2142,75942,13250,-416,874
12131,-2415,5722,1570,3419,-128475,-19757,-63,1923
12131,-1544,3337,1724,1749,-76829,-11557,-410,1752
12131,-808,3390,1973,25,-77706,-11900,-313,1422
12131,3414,-4390,570,-994,107113,16929,-20,-1262
12131,1928,-3920,64,-332,95824,15264,193,-1187
12131,-5782,-3278,-432,-3836,60625,10250,-437,2581
12131,-4789,-2818,-168,-3749,50556,8467,-295,2346
12131,-470,3240,5265,1137,-85463,-12516,-132,1271
12180,1062,-2307,-6489,-5255,74844,15253,238,514
