timestamp,ch1,ch2,ch3,ch4,ch5,ch6,ch7,ch8
66,0,0,0,0,0,0,0,0
66,-2091698,734820,125671,-3393327,-765377,1811902,1044547,179389
66,-1969336,692043,118646,-3192331,-720354,1702815,982472,168904
66,-1853485,649225,114766,-3004441,-676967,1604269,924664,158587
66,-1742375,611226,108872,-2826245,-635783,1508478,869966,149139
66,-1639571,574465,98760,-2660413,-597140,1423172,818835,140580
66,-1543170,540186,93536,-2502730,-561108,1338003,770239,132383
66,-1451372,508293,94611,-2354452,-528860,1257510,724312,124590
66,-1365581,478962,85471,-2214826,-499772,1181963,681408,117211
66,-1286164,451425,75293,-2084128,-474938,1111571,640928,110041
114,-1209320,426995,76263,-1957272,-440962,1035569,601456,104266
114,-1139017,401188,71025,-1841790,-416452,975775,566085,97968
114,-1070143,375318,57796,-1736504,-391922,930320,534596,90935
114,-1007857,352788,57212,-1633512,-367565,874860,502901,85642
114,-947236,330731,58696,-1537629,-348401,823229,473132,80595
114,-891665,311286,53716,-1446103,-328063,773455,445040,75932
114,-839111,296733,56304,-1355994,-306693,712686,416299,72808
114,-790936,274647,48551,-1282001,-288466,687099,394002,67565
114,-744050,257344,43477,-1206972,-271059,650656,371377,63363
114,-698565,243933,42406,-1133642,-254159,608844,349223,59543
163,-657070,233259,40043,-1063756,-240405,563034,327099,56666
163,-619142,216989,35889,-1004067,-226097,538629,309009,52746
163,-581038,206315,37773,-940865,-212530,496282,289190,50507
163,-547089,193964,36772,-885231,-198645,467276,272192,47419
163,-516688,179374,28566,-838003,-188095,453353,257849,44092
163,-486040,168943,26231,-788259,-177088,426044,242404,41541
163,-456910,159474,24454,-741000,-166893,399393,227898,39033
163,-429142,151262,26128,-696789,-151996,375085,214620,36173
163,-403248,142815,25157,-655448,-143348,351009,201643,33984
163,-379012,132534,22601,-618553,-138621,334976,189999,32236
212,-356713,124754,23153,-582028,-132219,311268,178016,30613
212,-335832,116929,21547,-547582,-124203,294693,167838,28765
212,-315702,109635,17762,-513568,-114192,276389,158021,26801
212,-297277,103814,14825,-483306,-109818,259743,148692,25178
212,-280040,100537,17433,-450959,-103304,233361,138061,24606
212,-264286,94326,17723,-424276,-97179,220438,130067,23106
212,-247382,88707,20741,-398820,-90689,206964,122371,21683
212,-233220,80819,14296,-378640,-82601,206045,116544,20075
212,-220534,76905,14081,-355220,-77586,191852,109423,18923
212,-207534,71495,12592,-335632,-74320,181905,103081,17518
261,-194459,71688,15472,-311565,-72498,158277,95531,16921
261,-182868,68663,14507,-292283,-67796,145159,89298,15997
261,-173129,57920,7279,-279395,-66539,156296,86322,14277
261,-162604,54618,7638,-262537,-62816,146039,81037,13485
261,-153211,54364,2357,-248555,-56104,135786,76141,12367
261,-144201,51420,2677,-233828,-52990,127615,71633,11686
261,-135306,48612,3531,-219530,-49988,118724,67197,11167
261,-127682,47035,8815,-204202,-47401,102886,62045,11271
261,-118860,44126,7726,-192276,-44554,97006,58283,10730
261,-111693,38470,11804,-183507,-39561,100409,56042,9681
310,-105869,38901,11041,-168282,-35419,83024,50894,9753
310,-98107,34117,4341,-162219,-34166,88373,49394,8683
310,-94595,30211,12525,-153180,-32835,83313,46800,7847
310,-88703,31125,11796,-140488,-31212,68975,42693,7917
310,-83156,30815,10838,-130019,-29334,58187,39172,7850
310,-77264,25596,-1053,-129999,-29387,74543,39608,6372
310,-72789,24387,-1881,-121896,-28017,69203,37072,6057
310,-69829,23709,417,-112902,-23511,63223,34708,5458
310,-65236,22747,3607,-105212,-21332,58232,32387,5271
310,-61736,21046,5667,-97892,-22229,46933,29036,5821
359,-56113,21197,9929,-91593,-21962,45217,27735,5104
359,-52745,18325,7377,-88926,-22152,49024,26936,4459
359,-52027,17082,183,-83583,-16731,47488,25356,4092
359,-48502,16515,-1510,-78928,-16865,44718,23934,3724
359,-45475,16046,-2058,-74070,-17899,41017,22532,3550
359,-42285,14900,3405,-67132,-11429,37295,20978,3218
359,-39574,17955,4900,-59285,-10662,24143,18252,3459
359,-36420,12119,2366,-62850,-11874,38649,19352,2707
359,-35514,12517,2107,-59085,-13484,35236,18088,2575
359,-32092,11586,-2352,-55652,-11861,31524,16542,2909
407,-31626,14001,11092,-46962,-8657,15723,13505,3415
407,-28762,14336,11242,-43075,-7134,11830,12226,3413
407,-28384,7100,2541,-47959,-8621,29018,14232,2249
407,-25663,4178,1496,-47467,-7457,35221,14528,1620
407,-23909,8447,-9548,-41530,-11169,24257,11920,2408
407,-22609,7663,-7146,-38809,-10782,22782,11278,2171
407,-21326,7131,-3397,-35999,-8838,20880,10524,1982
407,-19506,7748,7256,-35070,-5213,19487,9954,1608
407,-18513,7884,10664,-30799,-4737,13924,8745,1754
407,-16944,4822,-5649,-33270,-10292,20059,9425,1394
455,-16755,9063,1532,-24688,-4487,5436,6549,2464
455,-15720,7254,-1660,-25037,-4050,9824,6728,1954
455,-16579,1157,13898,-25256,-6239,15041,7294,1298
455,-14451,1960,9370,-23005,-5547,13535,6662,1324
455,-14320,13086,-7791,-14381,-2533,-7956,3636,1763
455,-12596,10620,-10730,-17256,-3221,2397,4879,998
455,-10089,12555,-5570,-13293,-3465,-4808,3836,1274
455,-11598,1170,-925,-22917,-10546,14743,5563,904
455,-12788,1108,337,-20701,-5485,12195,4905,928
455,-9826,3092,-7094,-17622,-7920,13158,5116,312
503,-9026,6554,-9362,-9854,-12772,-4361,2020,1575
503,-9949,4935,-9077,-12209,-11804,1006,2605,1264
503,-7459,2040,-5576,-15051,-3783,14362,4660,-173
503,-8113,3443,-12848,-14479,-6419,13066,4651,-330
503,-7250,2778,2814,-13142,-3371,10269,3698,-25
503,-7723,2854,5175,-12553,-3201,9386,3403,13
503,-5978,2620,9348,-11474,-2715,7651,3092,-20
503,-5741,-1370,-923,-13712,-3802,13582,3633,-507
503,-6627,-92,-4025,-10504,-3914,9664,2958,-412
503,-5499,1752,2293,-10321,-3598,6654,2393,-747
552,-6004,1802,10974,-6467,-2690,-2474,928,-201
552,-4103,-350,10883,-9520,-3701,6672,2219,-727
552,-3744,1834,8292,-3318,1665,-4627,641,-615
552,-3539,1688,8287,-2674,891,-4749,487,-533
552,-4042,-2268,-9899,-10936,-8743,7643,1634,-522
552,-3450,-2586,-5937,-10122,-8755,7196,1645,-675
552,-4270,-1759,-3897,-8890,-8906,5667,1583,-848
552,-3697,331,8824,-4480,1098,4999,1503,-1038
552,-2126,303,9907,-5091,-1013,4345,1280,-941
552,-3306,-1054,-8216,-4075,-379,2717,910,-996
650,-2331,223,18731,4561,7747,-13484,-2230,38
650,-1264,-995,13180,2711,7299,-9206,-1755,53
650,-11,-4022,16184,-9999,12070,13645,1769,-1788
650,680,-3126,23576,-7921,17063,11675,1757,-2120
650,181,-640,-6584,-2405,-3845,4579,347,-1311
650,624,-331,-5204,-2253,-2152,4402,658,-1622
650,532,10,-5218,-1979,-2133,3294,528,-1624
650,-2589,-3870,14993,1705,1479,-7846,-1863,-396
650,-1799,-3894,19848,1763,639,-7526,-1599,-615
650,129,3397,-32167,-4702,-17582,5136,454,-1248
699,-1449,-3532,-3434,-2036,5,4077,396,-1217
699,-238,-4823,-935,-998,2077,3407,244,-860
699,-573,2222,-11546,-3933,-10282,2817,87,-1353
699,-246,1628,-4791,-3577,-8838,2386,-41,-1309
699,1029,2193,-1520,-2112,-6587,-184,-470,-1010
699,-229,1986,-18052,1328,6943,5379,408,-1710
699,1602,3766,-12562,-1319,2694,4585,338,-1668
699,214,-3228,10782,-1126,-13,1776,-579,-1451
699,-169,-2154,8265,-4321,-154,1148,-578,-1361
699,1356,3077,-839,1995,-8134,-8756,-1811,-1601
747,-555,1148,-5920,1306,155,-7908,-1928,-1330
747,177,-3326,-15589,-3332,-1475,5512,-227,-1679
747,640,2787,-16523,-2309,-4534,3257,-59,-2754
747,1896,2042,-8626,-1978,-3843,1743,-256,-2443
747,839,-6632,18161,-2719,5756,1550,-401,-2200
747,-327,-5183,19445,-2924,4292,1079,-430,-2156
747,252,-8968,17469,-3592,8488,7467,69,-1652
747,-1125,-8575,13632,-2509,3802,5441,-310,-1439
747,-71,-7028,10804,-1292,-137,1917,-733,-1048
747,-510,-3025,3847,-2844,-1518,806,-654,-996
796,1392,1910,3457,2645,-12785,-12028,-2699,96
796,125,-35,7750,3151,-7618,-4373,-1582,-449
796,452,-84,12958,6710,-3369,-18575,-3986,1818
796,-862,-595,2233,5321,-5771,-11871,-3155,1579
796,1264,-4658,-11024,-3340,-1434,4664,-531,156
796,1392,-3580,-12712,-3034,-850,3740,-469,330
796,-987,-5739,-7027,-4097,-4578,1195,-1682,2732
796,-615,-3967,-6036,-3839,-581,1162,-1392,2567
796,1565,-1364,-2335,-2408,4048,4,-1295,2215
796,2530,-2488,19111,-54,13657,4085,-243,3106
892,746,3114,10882,3344,-12226,-12187,-3109,15975
892,2876,-4287,9848,-3614,9753,8307,773,15469
892,1559,-3841,9801,-2810,9566,6905,287,15184
892,-62,-1955,7230,-2422,6635,4432,-431,15138
892,2467,7880,-17444,-2957,-2221,3460,-438,17673
892,3252,6655,-20009,-3582,-4394,3498,-235,16696
892,2780,7462,-13294,512,-4618,-6898,-2269,24942
892,1754,7468,-2421,1250,-895,-8755,-2404,23964
892,2757,1799,-3306,-7591,-8028,3726,-1006,29276
892,2212,3300,-9549,-6784,816,3278,-1135,27759
941,438,-612,29491,4514,13676,-9502,-2952,29174
941,3738,6505,-27890,-1000,-11139,-2514,-2796,32357
941,3641,10767,-26668,3086,-2388,-12766,-4116,31867
941,4046,9432,-19571,3255,6843,-12751,-4134,30838
941,-855,-11645,31272,-6851,-14150,2933,-4234,36625
941,-499,-13063,29332,-4381,-9229,772,-4739,35440
941,2154,-6975,34718,-1176,2512,596,-5016,39795
941,1788,-6705,24034,-5020,-14752,1928,-3920,36637
941,1430,398,40459,-5262,4301,-6775,-6725,43899
941,2615,1754,36432,-2068,2863,-15167,-7504,42561
998,2277,-1871,17634,2224,5289,-19094,-7620,42225
998,873,-3763,7480,-11666,-5777,4919,-3018,46572
998,1587,-5116,19351,-9920,-19667,3609,-3415,44876
998,-2090,-10789,9587,-7310,-4474,1484,1396,51059
998,-762,-10887,25539,-7188,-6895,1482,1551,48533
998,-431,-9953,45144,-5565,-5260,281,1464,46360
998,3808,5960,12417,-8335,-7548,5148,7996,50733
998,3223,7113,4812,-7162,-13902,3125,7428,48530
998,-650,948,18278,-9490,4711,-458,13423,56101
998,-2137,-949,24031,-8414,8544,-699,12778,54190
1046,2952,16043,37646,-1420,24368,-11961,19649,60057
1046,2857,19717,60798,4525,37782,-22134,16787,58365
1046,3211,19802,68060,5549,37444,-22365,15653,55800
1046,5761,45362,-31859,-6375,-1927,4923,24488,56747
1046,6171,42699,-22824,-7228,-7118,3346,22848,54085
1046,2431,34470,33829,-8377,23729,-568,23664,60808
1046,4824,34925,43882,-6472,38980,-1154,22591,57189
1046,5100,33405,56904,-5070,46056,-1915,21676,54115
1046,110,35097,67731,-5003,23555,1339,21305,62354
1046,842,33451,54525,-4964,25647,709,20107,59195
1095,10560,78510,-26590,-6863,-21321,-5049,21241,67395
1095,7466,72007,-34310,-12129,-20623,5418,22208,62112
1095,7144,66105,-25238,-14928,-29823,3387,20841,58893
1095,4627,62554,11994,-5200,7916,-20243,14685,70022
1095,5594,64440,-4464,-5915,6491,-13626,14878,65530
1095,-619,37283,-5160,-12130,-8189,4818,17548,69515
1095,-210,39928,-2660,-12689,-6568,4064,16412,65787
1095,545,40311,-842,-13067,-13231,1734,14957,62765
1095,3784,36663,25625,-12695,15810,4761,16212,66307
1095,4213,36153,25684,-11904,7436,2868,14845,62573
1145,4099,6980,29917,-14691,-5916,1739,14646,71636
1145,4091,4703,29936,-16083,-14806,2485,14008,67938
1145,2127,8638,23616,-12636,-10526,-2755,12370,65290
1145,279,764,-377,-14252,-8396,3075,14582,69169
1145,-873,-1150,-3297,-13346,-6324,1823,13349,65909
1145,5323,4800,20405,-1543,13485,-22827,7544,72373
1145,5288,4414,5091,-8069,-8499,-13538,9673,66577
1145,6531,70,-4306,-13120,-7848,2330,12692,60590
1145,2290,-3563,6368,-12611,2465,3981,12355,66026
1145,2789,-788,6070,-17330,3309,4184,11561,62989
1193,7734,12795,4811,-3678,-3177,-10609,9526,70029
1193,5337,12473,987,-3885,-8841,-6924,9632,66118
1193,5038,14508,318,-2748,-8868,-7836,8773,62726
1193,768,7211,-219,-12168,6152,8607,11990,64792
1193,4182,10588,-14710,-10163,-3373,6771,11528,60510
1193,2963,29929,-33761,-9871,-4817,2854,8763,64653
1193,3567,23099,-26314,-9672,-3314,3036,8548,60492
1193,2434,14173,-21231,-8689,-7630,1877,8151,56980
1193,3101,28637,12778,-690,-12292,-9535,4116,62599
1193,4255,24250,-2461,-6617,-8075,6248,7341,56697
1242,136,29769,-2318,-6163,-10488,1087,6503,61649
1242,-476,24582,3196,-5163,-6483,3147,6696,57994
1242,-459,23703,12295,-1199,-5384,-9390,3281,56752
1242,4353,11159,26253,-6732,-13268,-4790,3593,57227
1242,3916,15652,9375,-6524,-8366,-3995,3413,53667
1242,6049,23858,-5151,-10715,8214,3588,2346,56240
1242,7456,27360,-17318,-6144,5835,2869,2383,52486
1242,10651,33617,-31520,-1510,1278,1521,2517,48415
1242,-244,25238,-4634,-6918,1016,4015,4412,50124
1242,-742,24893,-3716,-2756,-3402,2413,3553,47808
1290,940,37180,-51720,-3654,-27134,-29,2264,51082
1290,1019,34177,-40964,113,-31148,-10590,-1411,50649
1290,2173,26648,-18039,-6416,-25851,-1811,453,46391
1290,-1391,36800,-20688,-6627,3798,2947,1991,47610
1290,-1502,31515,-9180,-4723,4493,1328,1482,45437
1290,1309,29298,-1306,1074,-4638,-11858,-144,48140
1290,2234,19432,8017,1179,-2369,-10818,-29,45257
1290,3228,15993,9032,2387,9107,-11896,-330,42810
1290,-5156,14691,433,-4421,7233,3616,4980,41903
1290,-3425,15701,2389,-5629,5667,4368,4759,39670
1339,-2478,29995,-40457,-2544,-34838,-12594,-1137,45544
1339,355,26918,-50148,-6938,-30814,-7743,428,41169
1339,481,22676,-39579,-3276,-17073,-7224,953,37847
1339,-1093,10551,2525,-4279,6978,10752,5598,36959
1339,-1286,8899,7098,-4606,20400,8707,4497,35547
1339,4894,20094,-39504,-1069,-21261,5976,4843,35183
1339,3147,19544,-25893,-5235,-14368,4690,3777,33795
1339,524,17186,13603,-1763,2372,-10908,-1914,38311
1339,611,16720,3538,-28,2235,-10293,-1896,36072
1339,5251,14209,-38433,-1382,31483,5921,3715,31577
1388,-6383,10634,14410,2548,-2525,-14107,-4117,37385
1388,92,7604,5136,-3609,-2954,-1929,-361,32087
1388,3711,8534,-1642,-4010,1571,-951,636,28753
1388,3741,10538,4579,1800,17332,5122,2338,27308
1388,3260,12986,-332,2688,8359,3556,1845,25925
1388,1596,4946,-11236,-7884,-3190,9722,3752,25585
1388,812,788,-9529,-8318,-5728,8092,3011,24574
1388,-4763,-9923,27025,-660,7728,-721,-2627,28729
1388,-4339,-5252,10606,540,-305,-1286,-2553,26916
1388,-155,-1596,8881,1687,2894,-2523,-2578,25195
1436,2720,8589,-20374,1331,373,-8850,-5118,26831
1436,1859,5181,-15100,1448,1261,-7341,-4543,24833
1436,1845,-3271,33481,2060,14382,937,-2750,24165
1436,-146,-752,22519,2321,13230,130,-2782,22867
1436,-2215,-883,14525,1619,-1875,-2219,-3501,22843
1436,7335,-1280,-24705,-506,8271,1350,-3073,21202
1436,5963,4081,-43498,319,13633,428,-2737,19885
1436,-16,-3238,-1552,-9175,5746,10223,-50,19985
1436,1281,-2239,979,-4876,11114,9085,-107,19225
1436,551,-8636,11143,6631,20360,-1507,-3870,21775
1485,-1397,-3103,-5301,-2239,-14767,-4810,-5440,22336
1485,-130,-6856,13208,-1576,8264,63,-3489,19990
1485,3924,-11,22634,6506,2167,-14680,-7121,22293
1485,558,796,25797,7974,5255,-23229,-9431,22851
1485,-2160,-3164,26305,6388,11557,-21383,-9023,22150
1485,1756,-1406,-889,1628,4167,3152,-2367,17099
1485,1212,-6334,16136,3421,11584,1890,-2953,16778
1485,2386,-4283,-23801,-9946,-13419,7573,-422,14344
1485,2503,-6409,-13559,-6257,-9362,4860,-1212,14255
1485,277,-12091,2335,-4473,-24172,5851,-1307,13850
1534,-298,-8312,-14831,2849,-2015,-5433,-4718,15678
1534,-429,-11356,-825,182,12999,3502,-1723,13293
1534,1772,-2746,9981,6040,25086,-10640,-5278,14858
1534,667,-10504,-5159,-4656,-11484,3777,-2071,13137
1534,-657,-10632,-5354,-3716,-6437,941,-2802,13011
1534,-2500,300,30738,7991,16487,-25040,-10589,18554
1534,-226,-4659,29131,3545,13245,-19897,-9028,16558
1534,-1475,-6303,-4465,-7019,-7630,5765,-613,11615
1534,-1906,-8820,-1185,-5780,-4429,4702,-1033,11466
1534,-2663,-11937,2359,-3655,440,2300,-1735,11351
1582,3263,-732,1292,10486,2265,-7058,-4073,12270
1582,2371,-1312,10473,12595,5220,-15645,-6866,13765
1582,-826,-7259,1543,-1739,-7749,7036,-178,9548
1582,-264,-10405,2653,-5532,-3503,7020,215,8816
1582,-141,-14618,2874,-4766,728,3877,-240,8321
1582,-579,-7549,-17923,-659,-11508,2692,-910,8606
1582,1815,-9164,-12604,-583,-1217,2261,-636,7485
1582,1068,-5762,-6472,-556,-17778,-6167,-3418,9973
1582,-826,-8487,6890,521,-12688,-9087,-4241,9958
1582,-97,-12719,14405,-1621,14185,1747,-2020,9041
1631,-905,-2573,-31716,5765,2778,-10472,-3818,8231
1631,1579,-799,-29413,394,1769,453,-580,5905
1631,1950,-11571,7871,-7939,10354,-8369,-3024,7563
1631,1203,-11990,12161,-4952,12415,-9924,-3667,8148
1631,17,-10981,10197,739,6358,-8149,-3227,7893
1631,45,-8754,-13617,3793,-1491,4854,936,4811
1631,-60,-4536,-15416,5958,7434,2886,415,4828
1631,-4080,-27131,18497,2152,-6029,3392,660,5234
1631,-1736,-16407,23565,5280,4908,2832,911,4338
1631,1168,-5114,-16050,3912,22021,-9525,-2627,6284
1680,3929,-12742,9885,-1016,-7959,-597,-229,4786
1680,1716,-14612,16252,-2703,3090,5830,1427,4077
1680,2717,-9240,18896,2301,2863,-740,-137,4329
1680,831,-12862,-12435,-4597,-19372,3681,1096,2985
1680,-1471,-14077,-11707,-3913,-14554,2006,414,3746
1680,1075,-10941,-14720,2406,15350,-9093,-2953,5000
1680,1202,-10213,-11057,4288,4148,-10092,-3196,5523
1680,394,-6789,-35211,-1608,-7942,6643,2047,1833
1680,437,-2750,-31509,-2098,-9439,5035,1369,2094
1680,-239,1889,-11015,-777,313,1733,483,2394
1729,-1402,-11517,57994,13630,22060,-14851,-4617,6044
1729,-1737,-8975,30724,10599,14270,-10551,-3529,5123
1729,-1061,-4542,-1779,8569,-2249,-10899,-3651,4767
1729,-2915,-25654,17216,-4041,9116,10022,2934,482
1729,-1314,-19992,17628,-2649,9254,8177,2501,260
1729,2894,-11534,-5180,2927,-15350,1884,173,2418
1729,3578,-7150,-13616,5312,-11407,706,-450,2389
1729,-2587,-8164,3331,3103,-3310,-8974,-2376,3559
1729,-4096,-9073,-456,-1654,-8003,-7950,-2279,3540
1729,-5552,-9977,-3085,-2123,-9121,-9389,-2929,4060
1778,3730,-5875,-19099,453,-14602,-7976,-1508,2001
1778,1370,-8113,-13166,-1328,-9483,294,527,976
1778,-1006,-1003,294,-329,-6440,-1969,-291,1939
1778,-116,-17353,7625,5795,2499,2414,1618,181
1778,2393,-10415,-6838,2690,-3207,2647,1703,-109
1778,296,-10772,-24099,-5404,3304,5436,1959,770
1778,-743,-9027,-25256,-6918,-2817,5287,2012,532
1778,-268,-234,-22057,2433,-5840,2401,2091,143
1778,610,1419,-14138,4021,4554,1295,1501,395
1778,1626,3124,-7252,6666,8878,-1886,246,1319
1826,2249,-2006,2781,1721,-1782,-8497,-1580,2743
1826,461,2123,12836,8128,3749,-20087,-4836,4540
1826,-739,951,15456,8417,9840,-18998,-4806,4615
1826,1061,-13920,13440,-3764,667,4168,1998,740
1826,56,-12651,8200,-5528,-2831,3919,1964,542
1826,2414,-6555,-4454,-4069,-7872,2034,1972,68
1826,2481,-7347,-3651,-4518,-10344,2085,1910,219
1826,2470,-8239,-30669,-8902,-17618,13986,6041,-2017
1826,448,-11046,-14330,-6608,123,9837,4305,-858
1826,-130,-9829,-27,-4211,12058,5045,2401,644
1875,-2742,-4222,-8837,-2372,-3046,-7155,-666,2278
1875,111,-4622,-26048,-4325,-15252,2528,2054,327
1875,-271,-2561,-28666,618,-16337,-743,1235,633
1875,373,-3970,4955,9741,-1237,-20777,-4344,4587
1875,-764,-3974,317,10736,2307,-21586,-4871,4997
1875,263,-14067,19229,-1909,21985,6047,3250,-1211
1875,-118,-12719,7882,-629,17210,4472,2923,-451
1875,1573,-13635,-12082,-4133,-3408,3247,2610,-801
1875,1865,-13617,-7489,-3620,-3352,2756,2171,-372
1875,1428,-13804,1911,-3036,-3097,1802,1773,7
1924,614,-15898,8680,2913,13645,237,1619,-66
1924,-1490,-16410,12306,1423,12267,3127,2326,-449
1924,-1585,-14249,13532,2126,3647,417,1543,-91
1924,5176,-15712,-2898,-3832,-3020,778,1231,-106
1924,4302,-15775,160,-973,-4067,10,1003,-350
1924,1661,2435,-13284,6948,-7634,-23676,-5756,4383
1924,2616,20,-12616,4170,-5862,-20988,-5151,3672
1924,-1662,-17974,10676,-3200,8229,2624,1631,64
1924,-2690,-18724,11859,-3185,9199,4123,1915,243
1924,-1509,-14705,11136,500,16594,1256,1467,92
1972,156,-16280,13506,4951,-7849,-13843,-3105,2320
1972,1462,-15431,17238,3380,-11549,-13881,-3235,2049
1972,3207,-16702,16465,3450,-7637,-10656,-1943,695
1972,-1766,-16199,2156,799,8334,9347,3571,-1701
1972,-2646,-15369,4981,2272,10891,7144,2929,-1355
1972,3031,-9344,-26625,-2648,-33933,5597,2586,-2288
1972,1433,-11741,-15424,-1256,-22456,4441,1944,-1633
1972,-468,-7453,6784,-987,-2256,1174,751,-922
1972,-1926,-9499,4416,-3367,-1266,7165,2235,-1567
1972,2150,-20415,9547,1178,10516,4476,915,-3064
2020,-1159,-5138,-17772,2770,6432,792,130,-589
2020,-1266,-1241,-16883,6941,5866,-10228,-3073,1073
2020,1104,-3261,-14680,-915,-3272,2718,-937,-868
2020,1324,1460,-1905,4313,1368,-5098,-3131,73
2020,-4021,-18666,-1056,-2465,17892,5121,1410,-2125
2020,-1341,-18322,976,-5469,12372,5696,1774,-2442
2020,341,-17336,507,-7972,-2751,6134,2287,-2926
2020,1028,-18049,7851,-2400,3370,1810,155,-2940
2020,-335,-18147,12016,-809,6059,-592,-737,-1830
2020,1363,-6437,-27412,3586,-5398,-8674,-2814,-1473
2069,-441,-10171,3281,5228,6919,-8824,-3376,-793
2069,-1129,-12194,7906,4791,6156,-9393,-4334,155
2069,303,-13950,9630,2290,13699,2383,-3249,2261
2069,-3493,-13487,10716,3246,13451,-156,-7453,5472
2069,525,-16530,23911,-3045,1208,772,-3612,-3677
2069,-1501,-14096,31223,2665,12675,-7546,-5602,-1638
2069,-3786,-11592,33488,7790,19327,-15503,-7253,60
2069,71,-10921,-27511,151,-5480,6620,997,-4984
2069,522,-11777,-22563,-1046,-5959,4832,372,-4016
2069,-530,-11410,-7434,-2939,-4179,3136,-334,-5760
2117,838,-5628,-2369,2577,-4606,-7993,-3474,-3231
2117,2577,-3780,5486,7988,-1226,-14274,-5392,-1796
2117,2385,-11233,9240,-2040,-10883,-638,-1571,-5628
2117,4098,-12206,1852,-5474,-17666,10150,2420,-7460
2117,-710,-3382,-9940,-3023,-2611,4999,-280,-4072
2117,-202,-3205,-8271,-3333,-2327,4388,6,-1236
2117,-1755,-1455,-4315,-546,-876,-2492,-1393,1630
2117,1136,-177,-13982,282,-6546,1773,-4388,-6574
2117,-1400,336,-10065,1087,-6606,-846,-5066,-5308
2117,1636,-1922,3156,1049,3837,6373,-5099,-8040
2166,3554,1431,9465,6906,-3939,-14661,-11739,-8680
2166,1419,-2342,11459,-1753,848,-1125,-7495,-9167
2166,-2249,7427,-15364,-498,-4962,4020,-4637,-7261
2166,-3342,6636,-13032,485,-4012,2382,-6187,-2922
2166,823,20543,-1796,11553,-2305,-20763,-20384,-4318
2166,1176,16252,-3710,6152,-2360,-6952,-16588,-6629
2166,1181,12023,-3308,862,-2448,5505,-11954,-8676
2166,736,73067,-9032,-628,-2447,7846,-8309,-8240
2166,-2110,73308,-8385,-273,-3316,6794,-6976,-7944
2166,1756,131454,-10406,105,-12292,7608,-5754,-11753
2214,-3182,135946,-2204,6539,2325,-10946,-10435,-8271
2214,-3756,129092,-2010,5802,2452,-10066,-7471,-9586
2214,-494,155646,-3949,2584,5209,5050,-10702,-21448
2214,-4795,149515,-491,2202,5452,4562,-10183,-18443
2214,1766,183585,-3986,1146,-9144,2836,-14578,-28606
2214,3711,177457,-12325,2258,-7040,2275,-13991,-28941
2214,3980,172110,-18775,3541,-4606,1190,-13412,-29601
2214,-1608,197800,-7245,-37,-5500,2749,-8978,-45755
2214,748,189506,-4242,-1977,1362,83,-8540,-44826
2214,3093,207164,-2196,1055,-1901,6992,110,-71256
2263,4872,210247,17,11203,1685,-12142,-6414,-72104
2263,3138,195789,-1402,3104,1042,-5629,-4210,-69915
2263,2440,216065,1388,12496,-123,-9073,-4393,-101096
2263,2174,203419,1158,12192,-1527,-8732,-5573,-96566
2263,349,193389,-7627,3445,-2202,5561,-1895,-108644
2263,644,182385,-4464,2445,-2249,3310,-806,-106201
2263,2216,172988,-2378,3335,-1256,986,-738,-101396
2263,-6410,172935,5470,6328,-1808,-1530,-4438,-103562
2263,-4946,163793,1162,6001,-6514,-1831,-3923,-102684
2263,-7597,161851,54,3432,-672,6125,-5982,-105485
2312,2081,164222,604,12015,4703,-11107,-9653,-113304
2312,2893,149914,-2204,6891,4378,-2895,-6730,-109275
2312,-3396,136544,-11516,5387,-7420,5053,-4912,-129061
2312,-4238,128419,-10487,5999,-5749,7359,-3691,-122228
2312,-88,119562,-2971,8902,-365,-8869,-8888,-143988
2312,-1920,112828,-3451,8878,1456,-7557,-8537,-136083
2312,-3036,106455,-1103,9496,5400,-8730,-8978,-127416
2312,3210,97950,-22665,2755,-50,2735,-10131,-150397
2312,2297,92889,-17963,2592,2225,1345,-10172,-141055
2312,-78,90191,3379,5296,4108,3624,-10289,-151253
2361,-5591,95836,1309,9786,-1996,-9092,-4259,-141900
2361,-3575,91378,1301,9497,-1361,-9865,-3136,-133986
2361,-1527,71327,2781,3205,2969,10058,-4201,-131899
2361,-822,66270,4575,5064,2821,9375,-3181,-127089
2361,-1845,44935,3749,3456,3418,4248,-3885,-130283
2361,-1748,41123,3534,1450,3810,4100,-3529,-123628
2361,429,38479,2216,3997,1804,1257,-3585,-118693
2361,-389,30853,7870,8358,4356,-3583,-4192,-118950
2361,-408,28550,5996,8153,2714,-3462,-3491,-109261
2361,3946,9180,-4559,5599,8062,6172,-3386,-115941
2409,-1848,13597,-8334,9163,-3929,-12009,-5446,-112172
2409,-3065,9879,-6971,2585,-3720,-3093,-2624,-107551
2409,-1128,-3055,-1967,3865,6027,2673,-2830,-103788
2409,189,-3038,-10759,5666,2682,2647,-2183,-99218
2409,-6569,-40751,-5710,1650,1202,8219,-861,-97874
2409,-4637,-38653,-5439,3096,328,5909,-1633,-91106
2409,-2410,-36220,-4478,4718,335,2447,-2381,-85060
2409,2634,-53787,-2960,2732,2528,8160,-1074,-91566
2409,2816,-50526,-859,3552,3203,6422,-1688,-88724
2409,-626,-52657,-5314,7932,-576,-14240,-4925,-91086
2457,-2868,-58261,-6872,4528,1117,299,-4507,-83079
2457,-1172,-57175,-6081,3738,2876,4384,-3647,-80008
2457,-3086,-60898,-7235,7018,4784,4106,-1670,-77658
2457,-2749,-58862,-4809,7910,2585,4668,-2413,-71066
2457,-285,-73907,-5176,4102,-374,2183,1028,-70649
2457,70,-69279,-4895,4799,-414,1022,638,-66602
2457,-1057,-64436,-4596,5113,-871,-915,233,-62783
2457,1010,-78684,-6653,-2860,-12579,6582,2782,-64389
2457,-1051,-74146,-6316,-1688,-12584,4137,2169,-59815
2457,-1326,-83483,16764,-3730,8225,7054,2545,-61202
2506,451,-73368,-21570,7440,-9875,-4975,1254,-59070
2506,-886,-73795,-5550,2389,1245,1749,2504,-54582
2506,165,-83770,-978,8125,1663,-9359,2232,-58028
2506,983,-75723,296,10208,-2510,-17481,-230,-54147
2506,-5028,-88494,-8278,3740,4293,8261,5772,-50246
2506,-3877,-83380,-7135,4180,5052,6488,7662,-46534
2506,4259,-85953,-5268,6107,3585,2888,3069,-55518
2506,3513,-81258,-4294,4004,2836,1401,2689,-53635
2506,-299,-93934,-4067,4193,3012,4964,648,-46826
2506,-454,-88882,-3913,3985,2904,5395,823,-43052
2555,-358,-82265,-1151,10330,4218,-6683,579,-36336
2555,-7080,-88833,-2516,4184,3796,4535,580,-30718
2555,-6231,-84178,-1239,5923,5025,2981,340,-29033
2555,-4235,-79958,472,7374,5917,311,-134,-27062
2555,-1416,-73017,-417,11360,1169,-15256,-2649,-23457
2555,-2009,-71891,-2388,7657,-404,-7382,-993,-24895
2555,2798,-77731,-3418,7162,4913,5338,3848,-27290
2555,833,-73076,-5381,8336,1576,6698,3861,-21869
2555,-3548,-74712,606,6440,6442,3771,-634,-16349
2555,-5719,-70340,-4991,5421,1715,3373,-729,-14002
2603,-454,-60117,-6670,6619,3482,-6281,1030,-14556
2603,-1001,-69481,-3967,3679,1066,9440,2452,-14759
2603,-1473,-65709,-1960,2207,386,9269,3361,-17012
2603,-1034,-61723,783,3205,1584,5853,2686,-18084
2603,-847,-60927,-4632,3385,2391,2925,656,-7385
2603,-69,-57469,-3975,3502,1806,1056,-54,-5892
2603,-1803,-54839,-2053,4580,2693,-6008,-4658,-6329
2603,-1744,-55726,-4470,1084,2217,4559,-2761,-6079
2603,-7549,-55998,-3571,4914,3037,1121,-70,-2051
2603,-7340,-53199,-3035,4422,3047,1703,-683,551
2652,-1661,-49308,-1570,4372,2603,2086,472,-651
2652,49,-45921,-499,8470,1926,-7119,1587,-4483
2652,-868,-44724,-948,6830,1799,-4312,1234,-4022
2652,-625,-42296,-779,6251,1434,-4654,939,-4312
2652,615,-46672,-1947,3952,5404,9129,1908,-5022
2652,741,-43858,-1753,2908,5200,7872,1543,-4520
2652,-1083,-41425,-6524,4575,-3703,3961,783,-3717
2652,-504,-38054,-9180,2480,-3864,3540,934,-3391
2652,2120,-38840,-3543,7014,4657,-3981,405,-4676
2652,3286,-40158,-8102,1567,2446,8558,2342,-5917
2701,-1137,-39320,1373,3293,-818,7242,3015,-1526
2701,1417,-36823,2862,4474,-8,5121,3314,-2462
2701,6072,-33453,-10265,2989,-1462,7420,424,-5284
2701,4247,-31106,-10200,2662,-2170,6452,-324,-1338
2701,-1532,-28802,-175,6258,1550,2408,238,-1310
2701,-1428,-27134,311,6679,1668,-1577,-1323,-2947
2701,-771,-30944,-2371,1788,1609,6473,3554,-114
2701,-3188,-29287,-2071,1717,1741,6309,2706,789
2701,-7009,-27474,-1114,2579,1841,4454,1936,2027
2701,-3610,-25574,-1677,2001,1490,4451,1096,1774
2750,566,-18788,1354,9209,1232,-16436,-3803,1968
2750,557,-17536,1444,8342,953,-15092,-2997,1915
2750,-332,-24854,-2272,1708,504,9584,2398,31
2750,-1647,-22951,-1367,2270,143,6259,1705,631
2750,-2709,-20667,695,4633,7716,6175,1891,568
2750,-857,-19159,2186,4477,4512,5026,1419,1137
2750,-2032,-16496,3739,4374,5675,-5305,-23,1315
2750,-357,-14626,2177,1245,3352,-4009,215,1161
2750,-1166,-12984,888,1598,729,-4406,181,1141
2750,-1057,-16830,1655,630,299,7815,2146,1035
2799,-1081,-13457,3034,4365,2979,-335,1124,1961
2799,-557,-15479,966,986,-455,8908,2654,1186
2799,1884,-15880,3978,3296,-1252,4912,629,-1713
2799,1742,-14000,5660,1738,-662,4005,754,166
2799,-5144,-13287,-4974,342,-1619,11650,4294,2765
2799,-4577,-12400,-4662,466,-1312,11560,3798,2446
2799,-2309,-10421,-3427,1874,-353,4941,2133,3446
2799,161,-9422,-3176,1880,-651,2791,1679,3972
2799,1217,-7820,-2815,2917,-1059,-434,873,3956
2799,-579,-5439,-649,4281,-961,-3659,1009,1327
2847,-1276,-1288,1689,8218,-979,-15979,-717,1946
2847,-1190,-6728,-1534,1349,-747,932,1783,831
2847,-1139,-7342,-3432,-774,-1211,8952,3649,-308
2847,424,-6876,-3126,-396,-517,8032,3718,-832
2847,948,-5167,-3524,298,-36,6289,3039,917
2847,30,-4614,-2636,-1357,-1579,5122,2738,1303
2847,-3451,-11324,356,-5624,-2885,14238,4132,464
2847,-1497,-9081,-1042,-2789,-4165,11401,3629,303
2847,-2184,-7150,-542,462,-2760,7833,3156,249
2847,-16,-6450,-1552,666,4679,5883,3263,-177
2896,-358,-6833,-4257,572,-3566,4062,2608,344
2896,-2206,-7538,-4398,396,-3816,5588,2984,151
2896,-421,-5102,480,5539,-824,-9897,1227,1439
2896,1831,-4881,344,5506,-1398,-9859,2108,-2226
2896,42,-15296,-4136,831,6177,7421,2442,-2413
2896,-556,-14246,-6820,867,3142,6473,1745,-1506
2896,838,-13479,-2473,144,876,6105,3498,661
2896,-185,-13093,-2449,-74,145,6225,2895,1763
2896,-1523,-12035,-2218,368,-261,5012,2632,1837
2896,-1882,-15135,-1748,-542,63,7742,5897,1110
2945,-636,-10792,111,1966,923,-3069,1956,912
2945,-475,-12792,-1540,-217,669,4587,2749,738
2945,-2052,-13763,-4594,475,-50,5058,2887,-661
2945,-410,-12525,-5142,2134,-264,3294,2691,-445
2945,213,-7737,2734,4919,-1494,-9882,663,492
2945,326,-5956,3376,6747,-1531,-14243,-239,871
2945,-1352,-11475,-5542,-3142,-5197,8337,3330,12
2945,-2202,-10819,-4273,-2058,-4594,6662,2819,211
2945,-1018,-9409,-2813,-261,-3015,3310,1922,410
2945,-917,-9315,-1287,341,389,4688,2950,-536
2993,-309,-4136,3257,6206,2320,-12063,-132,2679
2993,-2285,-4377,2651,4927,2730,-9857,169,2067
2993,-3069,-9875,-2366,-2446,2369,9225,3570,-507
2993,-2533,-8888,-1768,-440,2002,6319,2816,-363
2993,439,-5086,-6794,896,-130,3125,2069,-601
2993,958,-4774,-4733,2887,185,4274,3134,-1642
2993,-4728,-5497,32,1255,156,-2298,1209,-188
2993,-4284,-8524,-1856,-2710,281,8251,3072,-1843
2993,-3130,-7373,-1159,-1407,449,5706,2965,-3028
2993,891,-5865,-1497,-1495,-221,5221,3333,-728
3042,3956,-1860,1055,2861,-215,-7114,2010,-1638
3042,709,-5245,-904,-1242,-73,3146,2989,-1292
3042,-1612,-1670,1229,3344,-229,-8456,1078,775
3042,-2228,-2626,1277,2657,-113,-7036,1202,541
3042,301,-5654,-1017,-1486,1388,5971,4169,-3467
3042,-1349,-5185,-684,-845,1139,4466,3285,-595
3042,210,-4666,-2045,-1798,-413,4812,3560,-895
3042,-570,-4677,-1628,-1479,-219,4317,3312,-729
3042,-559,-3845,-1128,-654,-101,2308,2922,-638
3042,-1027,2666,4140,5259,589,-21178,-331,939
3091,917,-5038,2405,207,4291,4956,3979,-1567
3091,385,-6204,1241,-566,3651,8022,4115,-1481
3091,-2497,-5322,-2309,-2621,102,5759,3885,-773
3091,-2284,-5055,-1888,-3087,261,5433,3679,-569
3091,-349,-2032,-3983,-3220,-10502,-6612,1966,-43
3091,-1483,-2058,-2132,-2237,-7283,-6595,1659,29
3091,-311,-5985,-2763,-1329,1385,6103,3976,-1071
3091,-970,-5346,-2227,-1179,1815,5768,3826,-1272
3091,-943,-4674,-1222,-661,2239,4305,3395,-1058
3091,-2881,-5637,-1750,-1078,1491,4246,3303,1271
3140,199,-39,1756,5543,2442,-12916,428,423
3140,-92,-1084,1447,4138,1792,-10185,568,849
3140,-2470,-7237,-4040,6047,-4120,7217,3763,-2775
3140,-3514,-7237,-2021,-2023,-1586,10623,4630,-780
3140,-493,-4812,-2412,-1630,1039,5170,3905,-2116
3140,80,-4415,-1756,-1750,931,4793,4037,-2321
3140,-3303,-1514,806,1719,298,-6591,2018,-100
3140,-2984,-1339,394,1383,-63,-5928,1878,56
3140,-399,-7123,-30,-3151,-217,7896,4225,-661
3140,-1045,-5987,-522,-2333,108,5975,3780,-2692
3190,-763,-3064,-2720,-2703,2667,5399,4542,-1731
3190,298,-2971,-3591,-2872,-2357,5872,4378,-1612
3190,-1697,-2543,-6869,-730,3182,3087,3357,-753
3190,-1214,-1776,-2324,779,5892,186,2724,-353
3190,81,-5611,4293,-2821,4612,9264,4660,-1623
3190,-1456,-5150,5906,-2003,3671,6769,3956,-1471
3190,-361,-3097,-3248,-1741,-2424,3712,3713,-966
3190,-409,-2809,-2777,-460,-154,2734,3231,-851
3190,-1557,-1963,-1963,906,574,195,2579,-454
3190,3210,1055,-4207,811,-4704,-5725,3313,-3134
3239,-2247,-31,-1754,1857,-4501,-4442,2486,1398
3239,-470,-3119,-2641,-1123,1631,5834,4397,-2004
3239,1153,-1635,-2362,-905,584,2262,3053,3239
3239,357,-1408,-1945,-640,479,1346,3009,3038
3239,-474,-1741,-2008,-1270,-593,1630,3388,2468
3239,-388,-559,-993,525,-518,-2576,2784,-419
3239,-4726,-3901,-1705,-2379,363,5545,4160,-1306
3239,-4259,-3056,-1530,-1169,629,3683,3505,-1252
3239,-3346,-1908,-1024,270,778,930,2806,-1009
3239,-1443,-1026,-2040,-1736,-843,2138,3500,-1867
3288,-709,2979,1518,4537,-542,-12566,1056,-537
3288,-552,3127,3296,5184,36,-14822,392,-286
3288,-1260,-4166,-2631,-6371,1543,12476,5181,-2181
3288,-468,-3668,-1276,-4864,3596,9894,4622,-1598
3288,-2464,-1932,-2337,-943,-4201,2219,3842,-1725
3288,-1470,-1174,-1095,1557,-3606,175,3114,-1848
3288,-1451,-1820,-419,54,-55,1459,3365,-940
3288,-2066,54,1192,2285,-257,-4911,2197,-585
3288,-487,3111,3133,3746,-967,-14253,689,-171
3288,-348,-1122,158,-1914,960,4930,4127,-2077
3337,1654,2193,-1067,-275,-2563,-4740,2986,-3956
3337,786,-598,-3613,-3434,-5020,4755,4169,-3770
3337,904,-963,-2552,-2521,-954,3386,4334,-2202
3337,-667,-1133,-2365,-2158,-1774,2813,3819,359
3337,1416,-1111,-2055,-4512,-871,5801,4521,-1456
3337,557,-3095,-3021,-6333,-545,11586,5167,-545
3337,-905,-1894,-2054,-4148,-365,7315,4546,470
3337,-3946,-1661,-938,302,1545,2068,3756,-1003
3337,-3005,-743,-1009,1004,1251,847,3280,-764
3337,-593,1453,5435,2204,3367,-8471,2070,-731
3384,-928,3443,-58,4280,-134,-12590,1308,-171
3384,-1724,2396,1413,3227,-33,-9875,1398,-193
3384,1400,-131,-2278,-1600,8470,4279,3501,-735
3384,1954,773,-2020,-2059,3649,3429,3398,-1091
3384,-1013,-1097,-1370,-131,-746,1491,3464,-911
3384,-805,-889,-802,-1531,638,2993,3764,-633
3384,-172,237,-2314,-2932,3554,2707,3855,232
3384,174,-2190,-3321,-4826,1221,9633,4717,-348
3384,-585,-580,-627,-1463,-719,2744,3965,-1824
3384,-217,-505,-876,-1622,-2133,2340,3460,-744
3489,-635,-1563,-5176,-5641,-13142,8935,4314,-1806
3489,-688,738,-1100,-2836,-1328,6490,4279,149
3489,250,1123,-949,-2170,-252,5716,4025,220
3489,-369,-117,-3271,-2624,-204,5642,4471,-1835
3489,679,-401,-1806,-2386,1111,5113,4210,-1778
3489,926,839,533,-341,1714,454,3223,-1347
3489,-913,-621,-2440,-4280,-282,6866,4293,-1376
3489,-1157,-201,-1543,-3387,-751,4561,3673,-1030
3489,-1143,-290,-1705,1309,-1267,1570,3132,-2212
3489,-296,-1088,-1332,3466,-1765,1480,3179,-2523
3539,1311,2365,-1173,-1602,-2496,-846,3438,-3296
3539,213,-197,-3211,-5091,-2789,7800,4870,-4841
3539,982,602,-3325,-3984,-3195,5530,4871,-6575
3539,-138,775,-2406,-3135,-2076,3600,4023,-3265
3539,1492,1348,-2153,-4283,-2276,3326,3775,-3055
3539,-1940,1081,2940,1448,2438,-3094,2521,2022
3539,-1385,4308,1717,3959,-2747,-11513,1145,2322
3539,-841,4133,-395,2779,-4428,-9222,1365,1913
3539,-554,457,-3481,-2072,-1196,7737,4435,-1176
3539,-151,232,-2377,-1996,601,6662,4138,-971
3588,-896,3648,2384,5532,1329,-10871,1843,125
3588,-1099,4010,1876,5528,528,-11220,1532,83
3588,-1587,3494,947,3656,-824,-8541,1819,-135
3588,2459,140,-4541,-7512,-4656,10189,5071,-2921
3588,791,-2024,-5721,-9605,-4353,17408,6244,-2981
3588,-489,-468,-2804,-5124,-704,6606,4310,-1870
3588,828,-27,-2449,-3649,24,5923,3933,-1238
3588,-836,335,-1639,-2553,-410,4721,3538,-658
3588,-1276,3557,30,3603,-561,-4347,2813,-1031
3588,-532,5820,106,4444,-1467,-9747,2023,-887
3636,849,5532,-4397,3271,-8439,-9613,1090,3876
3636,-227,2458,-3888,2218,-7005,-993,2326,2257
3636,-370,298,-2340,-4768,-3085,6717,4076,806
3636,-918,-789,-75,-1689,3699,5091,4436,-2230
3636,-2055,-547,-29,-1406,3762,4408,4242,-1805
3636,-4305,-2808,-1718,-6973,-1184,13571,5887,-1374
3636,-2636,-2057,-1801,-5629,-905,11984,5295,-1118
3636,-1522,-800,-1510,-3913,-929,8267,4360,-1207
3636,2241,1008,-2015,-1125,-933,2838,3685,-2985
3636,4297,2018,-1530,1143,-1068,-64,3406,-3332
3683,379,5401,1468,2771,-1334,-11980,1817,-1228
3683,1639,4051,701,2162,-45,-8092,2365,-2386
3683,119,3478,779,3217,1473,-7394,2320,-2655
3683,103,-1751,-2947,-3529,-1133,9055,4874,-1867
3683,-1032,-1428,-2021,-3538,612,7370,4542,-1829
3683,-497,124,-998,-1460,1423,4682,4297,-3561
3683,-307,252,-501,-1801,2273,4916,4309,-3637
3683,993,7675,3994,7699,-1019,-21012,183,-683
3683,1478,5016,1711,2392,-1219,-9045,1909,-1480
3683,-1384,-534,-1511,-1345,-819,6068,4766,-2024
3732,1430,4223,1174,1797,-1380,-7494,2259,-1725
3732,-815,-239,-1839,-3509,-320,6698,4153,-1394
3732,-825,4291,495,1219,-4668,-5592,2595,-1639
3732,537,4019,288,840,-3871,-4988,2618,-1830
3732,2121,-617,-2404,-5286,-2279,8953,4953,-2065
3732,1977,-534,-1755,-5071,-1893,8556,4882,-1998
3732,1493,-51,-1112,-3916,-1132,6628,4189,-1541
3732,693,-239,-458,-311,-1620,4988,4132,-2479
3732,175,-470,-138,336,109,4421,3992,-2461
3732,-100,4230,-1134,851,-7690,-4876,2720,-1841
3781,37,2401,-180,-587,1398,908,3517,-1094
3781,1312,-103,-1657,-3379,1126,8211,4407,-1536
3781,-431,-469,5478,-764,5555,4804,4276,-3843
3781,-34,360,2854,-677,4659,4014,3950,-4181
3781,256,1504,-1068,-374,934,1913,3383,-3313
3781,-942,3421,130,3125,-1454,-6887,1993,1472
3781,474,4280,-169,3391,-1653,-7566,1596,1918
3781,-1641,-900,-1419,-3465,616,8082,5056,-6349
3781,-1109,-96,-1500,-3025,810,7227,4956,-5831
3781,48,-27,-1068,-2488,-731,5766,4677,-5133
3830,-2032,4870,2156,5264,-752,-13367,825,302
3830,-1101,4415,1812,4151,-1643,-11733,1148,-790
3830,-1774,-1642,-2822,-7588,-7993,8585,4817,-1959
3830,-1448,-963,-2642,-5463,-6741,6107,4117,-1620
3830,-152,13,-2082,-3905,-5345,3695,3673,-1414
3830,652,1025,-1969,1044,107,3719,3925,-908
3830,-325,248,-1903,104,-1541,2628,3612,-632
3830,-161,4190,644,1891,457,-7072,2079,-313
3830,1114,4163,712,2092,820,-6750,1994,-387
3830,793,-922,-681,-3347,2208,5414,4259,-1394
3879,468,2242,-1231,-559,-3804,-558,3383,-1141
3879,256,-54,-2292,-2428,-3740,5850,4267,-1281
3879,-659,1135,-201,-1604,-957,3927,4098,-1604
3879,-470,1101,-1319,-1711,-4552,3408,3693,-1420
3879,1394,1473,-669,-1074,-4009,1290,3016,-1183
3879,1130,-864,-2515,-2985,30,7711,4387,-1560
3879,-797,-89,-1890,-1848,123,4796,3663,-1136
3879,-2807,493,-241,-1613,939,4202,4016,-916
3879,-2867,575,86,-1287,1290,3812,3855,-727
3879,2251,4717,-486,684,-4032,-6684,2539,-2659
3927,154,2736,-2068,-558,-1475,1260,3010,1049
3927,-758,817,-3019,-2371,-171,6980,3719,253
3927,-292,1517,-7071,-1363,-4242,3820,3813,-405
3927,1206,1912,-6317,-184,-3987,2622,3229,-178
3927,1673,2333,-4229,-22,-2513,996,2833,-511
3927,-1930,-337,529,7,7,1675,3133,-760
3927,-1612,103,524,121,-1103,934,3035,-461
3927,-284,-2338,571,-2159,5139,9082,4391,-169
3927,894,-1966,817,-1672,4849,7319,3958,1015
3927,-143,1293,298,-2088,1072,3609,4481,-1373
3976,1381,561,-34,1693,720,1937,3641,-677
3976,1802,1116,-716,762,-1392,1282,3355,-718
3976,-1343,3763,2898,4811,-476,-11212,1511,99
3976,-1885,5164,4638,7055,-238,-17619,575,755
3976,-712,5595,5045,6874,-195,-19665,121,946
3976,1665,-766,-1918,-4617,-1822,7692,4650,-1902
3976,1834,-349,-1970,-3648,-2801,5721,3834,-1715
3976,-495,-314,-809,-2227,3351,4429,4093,-795
3976,-1677,-81,-411,-1896,1385,3652,3919,-713
3976,-2390,-326,-1069,-2182,264,6754,4685,-2301
4025,1783,4822,934,5703,-1052,-9124,1999,-1668
4025,-331,1392,-123,-2531,-238,1314,3224,-1397
4025,34,828,-801,558,1183,4579,4099,-1040
4025,-400,1379,-1020,1256,1055,3755,3765,-1127
4025,1142,2389,-800,2184,893,1419,3428,-1201
4025,-3279,1280,2131,-271,-1139,-5020,2726,-701
4025,-1831,-2520,244,-4047,-748,6084,4008,-1086
4025,569,2234,-841,-32,3122,5323,4557,-4654
4025,1032,2375,417,1018,5050,4329,3849,-2279
4025,-1822,-433,502,-4203,-5121,3698,3758,-1161
4073,2680,5456,3272,3410,3391,-11632,1618,-509
4073,3124,4637,2653,2513,4670,-8965,1618,666
4073,-538,630,-1855,-2916,-2864,6219,4684,-2594
4073,-1970,366,-2086,-2838,-3058,5769,4174,-1061
4073,-1670,749,-2135,-2231,-3202,4116,3418,458
4073,1543,-673,-230,-2049,-1441,4574,4238,-3856
4073,-208,-838,606,-1842,-599,3957,3837,-2631
4073,2246,155,-2306,-2772,25,8922,4870,-2613
4073,-552,479,-1702,-1227,36,6345,4331,-2331
4073,530,1196,-998,-171,790,3825,4115,-1365
4121,-1631,4297,2023,3477,-1700,-9467,1696,-319
4121,-1007,2445,310,-1137,-3446,-2824,2536,-735
4121,-1314,3709,1453,2087,1590,-4810,2514,-199
4121,-809,5391,2702,4588,1594,-11061,1372,237
4121,1439,-952,-1965,-4983,-884,8938,4913,-1417
4121,1171,-794,-1893,-3253,-469,8004,4844,-1772
4121,-853,-339,-1553,-2238,-557,5957,4319,-1320
4121,2340,719,-1412,-2971,-2525,4077,4005,-1442
4121,1017,562,-1259,-2568,-2037,3617,3729,-1667
4121,-15,3930,1504,3159,-4254,-8327,1989,-585
4168,2011,9435,4148,9486,-1739,-23019,-379,-2012
4168,1843,7197,2813,6215,-1647,-15847,257,-1734
4168,557,-238,-1019,-333,1330,7258,4084,239
4168,788,120,-375,439,1185,5930,3655,376
4168,383,-183,1705,-3113,-437,4617,3498,-4445
4168,111,615,-1502,-2721,-1088,3175,3456,-4976
4168,-2733,-1019,-2895,-5227,-2977,9255,4070,1882
4168,-2148,-178,-2811,-4984,-2852,7901,3763,1239
4168,-350,825,-2160,-3366,-2467,5193,3349,712
4168,-641,701,-818,-2859,-235,4556,3628,-609
4217,-535,4310,3985,4670,861,-11226,1694,-529
4217,469,3561,2624,3908,816,-8026,1949,-1077
4217,-1150,5513,472,6309,-5816,-16603,357,1477
4217,-804,3978,-383,3820,-4282,-10778,1021,1244
4217,1014,-1759,-3272,-4154,-7325,9180,4690,-399
4217,1574,-1367,-2008,-3122,-4669,7408,4266,-77
4217,-606,-1010,-535,830,3376,5348,3809,-576
4217,286,-225,-766,1030,2274,4406,3374,-371
4217,-1342,806,-2541,-2449,2680,7347,4355,-1260
4217,-795,569,-1574,-2773,3834,7196,4480,-1842
4266,1637,3630,3337,570,3642,-3081,2373,84
4266,1663,1862,-1927,-1236,-1146,5077,3757,-1288
4266,2460,2056,-2307,-1392,-1441,4661,3651,-1612
4266,1528,2169,-1734,-579,-1376,2147,3213,-1075
4266,937,6393,1834,10013,-583,-16903,439,658
4266,1300,5070,1852,6552,-256,-12574,1176,-1204
4266,636,-803,-662,-2797,495,7163,4101,-3132
4266,224,-632,-616,-2083,129,6227,3716,-2462
4266,-1997,514,-2601,-2620,-1788,4877,3633,-7
4266,-747,564,-1583,-2008,-652,3959,3334,-30
4314,-1350,3596,1488,1636,1161,-6996,1933,-594
4314,-1133,34,-3747,-3066,-1447,8324,4585,-3607
4314,-1142,-401,-3134,-4438,-431,7828,4303,-2815
4314,1,-213,-2363,-3390,721,5894,3748,-1503
4314,19,960,303,-1577,-868,4135,3606,-451
4314,1276,1188,1330,-649,-317,1866,3043,-233
4314,421,-486,2321,-3889,-1227,7841,3967,-615
4314,-1320,7,1368,-2720,-1462,5403,3098,-7
4314,1774,872,-4079,-2198,-454,3266,4077,-2101
4314,2127,812,-3153,-1898,-706,3346,3962,-1794
4363,-888,2920,-1864,-528,-1433,1085,3474,-1085
4363,341,3659,3015,772,1390,-8593,1406,373
4363,307,3308,2437,2176,1019,-8104,1285,367
4363,-103,3336,2243,2582,291,-8384,1260,356
4363,1021,1076,-2190,-4604,-2341,5757,4129,-1616
4363,-348,1474,-952,-3206,-1134,3146,3469,-1260
4363,-625,-1967,1559,-835,4123,3324,3523,-1111
4363,-166,-1077,1166,273,2975,2449,3249,-1083
4363,1146,-883,-1414,-2408,422,7888,4272,-1351
4363,2600,-296,-678,-1426,754,5801,3750,-1130
4412,-2178,2833,-594,1735,-1470,-4984,1945,-160
4412,485,642,-790,-904,-824,2611,3648,-1002
4412,-276,225,-586,-1018,-768,2718,3650,-572
4412,-1978,624,-427,-51,-1119,298,2985,-80
4412,-1092,4649,1375,3404,-870,-8408,2007,-496
4412,-816,4855,917,3307,-1391,-8452,1660,-334
4412,-536,-272,4754,-1261,2190,5062,3586,-860
4412,560,-60,1439,-1266,-181,4553,3548,-821
4412,-957,32,-4032,-1071,-4141,2402,3279,-1119
4412,644,221,-3125,-720,-3983,1808,3284,-1236
4518,-535,1422,255,2621,1389,-1621,2126,-792
4518,502,2561,-2320,122,163,2863,2865,-1594
4518,0,1849,-2532,-1958,-1233,2480,2716,-1510
4518,-2068,4396,-4162,-2678,-2688,4837,2749,-961
4518,-1880,3690,-3348,-3892,-1788,4573,2598,-921
4518,-1423,2544,-965,-2816,174,3280,2623,-853
4518,-127,-74,4834,-1183,-264,2934,3005,-1183
4518,-128,461,1519,-731,-779,2159,2810,-1288
4518,1644,7869,-1993,2617,-2725,-10703,1210,-1038
4518,272,6829,-1954,2491,-2242,-9092,1281,-1001
4567,48,3917,-65,2922,1323,-8449,1211,-858
4567,952,80,-1600,-1303,26,2088,2596,-1272
4567,-21,-1183,-1211,-918,-460,2244,2408,-962
4567,-645,-56,-2771,-3112,-3974,3915,3356,-1565
4567,1090,829,-2178,-1924,-2790,2092,2738,-1486
4567,-95,1087,-2953,-1691,441,3634,3217,-1386
4567,-892,1150,-4491,-1016,-267,3047,2974,-1421
4567,-731,1736,-4687,170,-345,447,2483,-1324
4567,-924,-1333,5197,-1616,-8222,1354,2456,-930
4567,-1310,-1899,5649,-14,-6583,-164,2078,-759
4614,371,6160,-3850,-648,-2107,-13068,466,30
4614,795,5455,-3675,-2788,-642,-9306,850,-268
4614,2531,5277,-3574,-2295,-408,-6628,1444,-748
4614,-1342,-1410,17909,1374,17296,4873,3250,-955
4614,1018,19,14904,1562,11159,4074,3093,-1039
4614,298,-1257,2525,-3009,1337,3603,3198,-1265
4614,-1114,-767,5099,-2133,-4,2941,2801,-1068
4614,2040,11484,-14560,6950,-10614,-19175,-150,19
4614,2145,10681,-15680,4738,-6736,-15401,257,-225
4614,1994,6927,-13089,511,-4179,-4994,1675,-797
4663,615,-5825,12713,-2876,12717,5546,3146,-1223
4663,-1258,-7163,12034,-2097,12999,5425,2984,-1125
4663,-208,-3783,11627,3289,11607,-8106,770,-512
4663,134,4670,-6068,-133,-11316,-4357,1673,-1113
4663,-216,1984,-3320,173,-6292,-3787,1543,-878
4663,822,-1008,3655,-5349,7649,7920,3126,-2169
4663,801,-1953,7641,-5282,9006,7469,3358,-2518
4663,3062,1034,-11356,-3309,-11402,5862,3521,-2592
4663,410,1399,-14309,-3313,-11316,4913,3136,-2221
4663,-438,2058,-11490,-2198,-11497,2122,2418,-1767
4712,2108,1673,522,-3449,-8213,-882,2091,-1979
4712,1873,226,-5153,-5844,-10482,5881,3068,-2378
4712,548,3016,-8890,-1893,-9790,-1032,2114,-1952
4712,173,-3519,458,-1693,-4490,2239,1835,-2101
4712,-1616,-3616,2381,-2138,-2980,2027,1868,-2035
4712,1305,1402,-8889,883,-6102,-7371,428,-1476
4712,1703,1878,-1677,1531,449,-6303,1061,-2205
4712,3702,4323,10612,5948,8275,-13276,322,-2158
4712,3093,1785,-10878,-3192,-1804,5279,2813,-3571
4712,3755,1250,-3247,-2238,1633,3358,2331,-3234
4761,4015,8113,1288,1544,-6485,-12689,859,-3327
4761,4038,7033,6600,-16,-3045,-8905,1270,-3404
4761,3433,5462,9250,-1200,463,-5875,1589,-3346
4761,1169,-1574,-12368,-3714,1408,7531,3196,-3884
4761,952,-211,-16778,-3645,3323,6235,3017,-3748
4761,521,-2229,9026,-2587,-5232,4083,2714,-3348
4761,857,-1509,12286,-74,7079,3147,2356,-3117
4761,2102,738,12826,2860,14761,-125,1689,-2717
4761,2178,4140,-3052,-4182,-2484,-5273,1682,-3210
4761,2817,3502,-1382,-3347,-2111,-5303,1473,-3187
4810,3871,9324,-43434,-9304,-18268,3209,2501,-2007
4810,2229,5682,-29301,-9683,-15046,6397,2773,-1674
4810,701,6459,-17890,-3493,-13630,-4091,1222,-596
4810,4378,9904,-17812,-3958,-11381,-341,2227,-1405
4810,1945,10188,-9613,55,-7578,-11485,149,-104
4810,2240,612,-2075,-5053,-4130,7838,3140,403
4810,1968,1463,-867,-5091,-6268,6936,3104,245
4810,3353,3518,-609,-4349,-6202,4366,2723,313
4810,2660,10417,-23439,-5992,-6580,3921,2444,2313
4810,3839,10701,-22823,-5433,-8495,3043,2094,2217
4859,205,9690,-5678,-4263,-2182,-3635,278,10645
4859,-1080,5564,-10290,-7387,-8197,4304,1336,10427
4859,-762,4766,-5339,-5074,-11230,-16,591,11073
4859,5323,4983,18594,-2479,-6297,-994,572,14186
4859,3118,4407,12704,-2284,-2982,-1286,696,13369
4859,-1243,5044,19447,-1435,10217,-574,898,20159
4859,180,6687,19440,2578,20899,-8023,-344,20034
4859,-642,11460,16879,5638,24401,-15516,-1543,19813
4859,-3672,-2897,32745,1511,52647,63,-837,30801
4859,-2295,-1544,16457,5126,60995,-1589,-898,29317
4907,-99,25248,-5589,-1788,-17568,-9090,-2395,39895
4907,331,26258,-6920,3848,-17108,-17452,-3705,38960
4907,2070,26214,-903,5516,-8474,-16126,-3111,36718
4907,3889,31376,34233,-277,-1980,-15133,-3103,44021
4907,2956,22873,32775,-4819,-7098,-4905,-1736,41527
4907,2195,28361,48973,-8323,-2318,5243,36,48013
4907,879,21081,54066,-7631,-3558,4078,-181,45988
4907,4526,46565,13868,-9587,-23614,4795,4520,51726
4907,4982,47771,13643,-8728,-14799,3577,4605,48963
4907,4456,40745,27181,-7153,-4947,2840,10610,56706
4956,-159,29667,25712,-7044,6939,1748,11689,59152
4956,2761,34673,-4769,-7592,1904,3155,11346,55930
4956,7328,48184,54811,-3190,6145,2313,16130,62202
4956,5791,44592,55673,-1507,5527,1521,15533,58827
4956,2535,37990,58987,-1152,4397,64,14765,55926
4956,-84,32849,22773,-17402,-32844,10079,17948,63543
4956,2630,35992,-23,-17837,-37837,8926,17364,60081
4956,-4402,34634,56941,-9074,-5686,-1739,15466,69954
4956,-3335,30667,61137,-6857,-6711,-4026,14011,66313
4956,3041,38527,67792,-9003,13148,-784,16310,70817
5004,5840,43581,46847,-3540,-2995,-13400,11909,72698
5004,5396,42228,23431,-3658,-6674,-12913,11275,68624
5004,5127,41092,34387,-11101,16119,1991,16560,74170
5004,4903,41074,25403,-10189,12778,1282,15664,70092
5004,4095,39707,30263,-8950,10426,1407,15457,65732
5004,-582,41088,34670,-2953,19345,-3620,13249,75531
5004,-1797,37054,51765,-2900,32704,-4776,12045,72573
5004,6100,46105,-7154,-15236,-16131,7896,16211,75746
5004,5802,45158,200,-11642,-9426,4745,14467,72217
5004,3195,38833,2554,-9592,-6428,-657,14165,81338
5053,1842,48526,44809,-12260,-16416,-5466,12109,82564
5053,2882,45461,52164,-12007,-4017,493,13212,76933
5053,2449,43993,9785,-7449,-2672,-9108,14159,84080
5053,6021,46037,5558,-8688,1313,-7759,14082,78923
5053,5345,44095,-3031,-6460,2267,-9373,12784,75270
5053,7981,46030,28182,-14756,-14371,7158,19213,79724
5053,6693,41779,28395,-14181,-14723,5628,17977,75168
5053,-1954,34807,66867,-7821,11623,-2866,11367,87228
5053,-853,31044,63956,-7765,11038,-4471,10074,82707
5053,-1852,37742,24562,-9758,36024,5401,15401,89304
5102,4492,57782,2051,-5724,-17569,-7883,14995,87285
5102,1909,47935,9739,-8291,-4391,3401,16746,82200
5102,1062,46493,14218,-8367,490,2731,15619,78484
5102,-1905,41361,60636,-7345,3005,-1008,15963,85349
5102,-3416,45678,38878,-6558,6806,-1183,15028,80913
5102,2601,72104,9604,-6195,9077,-10532,10173,87502
5102,5990,73090,2509,-4529,8403,-9747,9781,82182
5102,1843,48142,29273,-7489,8579,1025,5770,82676
5102,81,44114,34966,-5978,8833,-336,4627,78943
5102,6414,84798,-5642,-9753,459,195,1426,81083
5151,1980,76421,2842,-5220,-12380,-13335,-4492,84006
5151,3520,68998,-1172,-7165,-6117,-8599,-3302,78704
5151,2056,64675,-4158,-1890,-2993,-9548,-3401,74520
5151,6332,59617,-1932,-5300,-8267,5220,198,72484
5151,6602,59693,-704,-4442,-8478,2895,-894,69395
5151,5305,55504,49314,-1358,18797,2336,-4049,72210
5151,5522,62579,9612,-6140,-767,2658,-3974,68318
5151,2321,58266,48107,1462,9989,-10653,-11788,75298
5151,3852,54519,56730,2102,20764,-10794,-11751,72189
5151,1587,53223,64478,3775,29006,-14973,-12844,69709
5199,1485,58810,21825,-4139,-31405,-6315,-12447,71241
5199,4247,54690,21609,-7196,-23307,-1575,-10958,67327
5199,3508,77350,-5485,-7807,-3650,5063,-9488,67931
5199,3165,66091,-7670,-6265,-2328,4409,-9176,64603
5199,1392,57445,-5375,-3390,-2377,1575,-9628,61678
5199,-30,42159,17462,-2967,26754,6101,-9544,65723
5199,2067,38605,19705,-496,40723,5529,-8630,61230
5199,6586,49883,11572,-5628,-14655,2711,-11283,65420
5199,4774,41802,11009,-6330,-14739,1542,-11046,62245
5199,-3028,37458,42718,966,7506,-10712,-19025,69275
5246,224,39209,74697,-680,8271,-11558,-18263,64879
5246,2477,44291,14607,-4488,-28341,-6347,-15983,60329
5246,1631,52526,-32308,-2359,-6245,2476,-15714,61264
5246,4494,48908,-22470,-3261,-10748,2286,-14865,57413
5246,2487,43726,5077,-5521,3977,3196,-15395,58134
5246,3350,44083,-4093,-4595,-3643,2549,-14881,55081
5246,3312,40859,-15896,-3782,-9033,1162,-14676,52276
5246,2832,37914,9303,-8385,-2859,10843,-14189,53041
5246,2520,36337,9761,-7609,-189,7168,-14304,50258
5246,-1822,39525,-16862,4127,4401,-626,-19634,53851
5295,1155,47966,-29450,-1168,-15108,-11641,-23351,54442
5295,-682,38333,-13827,-3122,-3751,-4886,-20478,50878
5295,4628,56103,-38990,809,-5246,-12419,-23685,51148
5295,1854,56111,-32765,6012,2101,-20982,-25980,51140
5295,-277,52832,-27185,6805,2628,-19686,-24444,48809
5295,6565,44535,-36145,-7544,-10743,7131,-16442,44197
5295,2987,39020,-18220,-7766,-3339,5478,-16042,42591
5295,1023,36100,-15658,-3592,4295,4648,-17265,42170
5295,1675,31517,-15563,-3831,-945,4346,-16306,39523
5295,3816,32224,-14417,-2513,-8866,4053,-17090,38901
5344,-1769,34603,-14174,-1077,9542,-6853,-21824,41910
5344,-1767,30485,-23033,-3906,9996,2848,-17448,38240
5344,-1772,24401,3104,-3529,15831,4079,-16591,35819
5344,527,21788,18104,504,28981,2667,-15985,33765
5344,359,23357,15610,2359,25241,567,-15771,32019
5344,2186,38663,-439,5810,-6099,-21443,-24705,37344
5344,2574,34431,3493,4694,-2593,-17005,-22147,34502
5344,3553,33191,-37996,-2909,-4344,7801,-11808,28096
5344,652,29223,-31447,-3041,-12289,6326,-11524,27395
5344,2006,28709,-31783,-10380,-30980,2335,-14014,28746
5392,3691,27485,-10758,3381,23306,-4476,-15792,28381
5392,1643,29281,-8139,8204,31670,-13808,-18181,28252
5392,-3876,19932,-31122,-9861,-44319,6194,-12540,26759
5392,-1188,16587,-22366,-4245,-19860,5418,-11841,24465
5392,756,18857,-1271,-127,928,1342,-14876,24574
5392,-5429,14665,10542,1966,13933,827,-14389,24572
5392,-7377,10092,16345,1717,15703,979,-13458,23379
5392,-4078,22708,-33418,-607,-18740,-8666,-17821,24635
5392,-7317,23697,-21263,5899,-7492,-22391,-22021,25939
5392,-3379,4350,-5672,-5638,6159,5763,-11822,19889
5441,265,8345,11975,1462,11642,-334,-14255,21654
5441,2432,8775,-3168,-1142,7177,2227,-12367,19666
5441,1659,24365,-20500,1772,-5831,-6770,-13819,18579
5441,731,23733,-14023,3102,-6013,-11539,-15246,19659
5441,950,23122,-12028,2765,-3820,-10262,-14505,19072
5441,1714,11587,5168,-1242,1951,8459,-6506,14115
5441,1611,11028,4210,-1423,1966,7776,-6287,13206
5441,5486,7754,150,754,14333,1948,-8416,13649
5441,5127,6172,4295,101,15710,147,-8299,13022
5441,2728,8495,-24523,-334,-19765,-7041,-11069,15929
5490,2897,15743,-6861,667,-2877,-7153,-10988,15255
5490,2374,13536,-7690,-232,-7307,-4126,-5583,11218
5490,-2578,6416,-17214,-174,-5240,2178,-7194,12942
5490,-5104,2380,-7901,1318,-358,-164,-7845,13654
5490,-4811,2769,2068,1234,4906,-1805,-8081,13167
5490,1140,15678,-24767,2767,-2280,-10725,-10487,13573
5490,1373,12707,-24610,1248,-2924,-8342,-9561,13012
5490,2504,11813,-37272,-3327,-12295,6174,-2862,8134
5490,1957,9555,-31448,-1094,-8025,3008,-3601,8088
5490,-3326,-10095,17361,-2983,4819,2828,-5079,11209
5539,-2793,9508,-5956,2297,9480,-13883,-11549,13945
5539,-1898,9247,-17984,928,6924,-11373,-10077,12807
5539,3147,-320,-18144,-5764,-21507,11434,31,6388
5539,3337,6880,-20623,-3688,-21172,8663,-797,6871
5539,2652,9812,-9026,-885,-10072,4617,-2055,6710
5539,-1415,5218,-10980,-5362,4418,4648,-2362,6887
5539,1766,8842,-7947,-4765,-345,3969,-2074,5479
5539,2356,13333,-10921,10370,4225,-12430,-7829,8371
5539,3411,9423,737,10124,13761,-9278,-6376,7644
5539,869,5994,-2977,704,1858,4027,-1309,5388
5588,-2114,-1488,-44675,-2899,-31773,-331,-3001,5717
5588,-601,-2287,-38600,-5374,-27314,5008,-763,4352
5588,6791,2957,-12786,-5248,-13178,3664,-1131,3670
5588,5926,3235,7179,-3756,-11218,1758,-1824,4014
5588,1486,1425,20982,-175,3690,-950,-2608,4509
5588,246,-14734,39829,-3883,29061,5530,201,4288
5588,-678,-15319,35427,-10053,13293,5045,-9,4143
5588,-2862,-8404,20845,1231,-2314,1302,-1158,4153
5588,105,-4966,6610,3474,-22302,649,-992,3247
5588,-258,9666,-14214,3325,12529,-13002,-6538,6989
5636,-3028,-943,1138,432,-23074,-10333,-4758,5697
5636,-2646,3107,161,5841,-15032,-21768,-8957,8073
5636,-990,-1522,-10755,-4244,15472,5894,1530,1625
5636,802,-416,-9362,-3610,14552,4809,1188,1927
5636,2061,1120,-1845,-569,16498,1419,-176,2819
5636,-3657,-4753,-194,-523,7560,1782,-101,3644
5636,-1259,-4645,6975,-3663,8730,1817,-35,2923
5636,2787,-7701,-2594,-6734,-8317,4642,1598,467
5636,2118,-7280,6814,-2981,906,2491,934,1537
5636,-2012,-2710,-13355,3506,-939,894,65,3028
5684,905,4755,-9042,4799,3786,-10493,-3302,3707
5684,-1942,753,-2968,2652,7824,-6619,-2633,3781
5684,-724,-8621,9453,3080,29092,-7052,-2449,3796
5684,-279,-6379,7143,3714,25064,-5094,-1651,3089
5684,615,4370,-4121,6730,5139,-10912,-3136,2759
5684,8731,-3881,3470,-627,30319,3921,2180,355
5684,8997,-849,4424,-708,21898,3564,2143,-23
5684,888,2049,-19233,266,-234,2642,1624,1103
5684,-1125,1368,-15879,-480,-2036,2210,1445,765
5684,-7664,-3893,-13141,-2508,-7893,5053,2172,1922
5733,274,327,-11982,553,-166,529,602,1964
5733,420,-740,-8272,-3811,-8502,1814,894,1916
5733,1234,9584,-11604,-722,-3380,1733,1014,643
5733,510,9944,-22223,-1353,-11903,1398,864,478
5733,-1917,7601,-23702,-685,-10567,-1310,116,646
5733,-5280,3478,-11158,3531,-3403,-10397,-3537,4601
5733,-3873,5089,6969,4551,515,-16150,-5387,4796
5733,1510,-5107,2377,-3424,291,2807,1336,1160
5733,3008,141,2567,-3476,-693,1255,902,850
5733,1420,2013,916,-1451,-730,2142,1740,-15
5781,-409,5266,-3306,9252,17084,-6000,-1072,2253
5781,2468,9595,-11642,10372,6768,-14462,-4046,3081
5781,-5556,-4410,-11833,-2951,-9411,3493,1672,1443
5781,-3988,-5015,-4805,-1955,-7617,2063,1092,1710
5781,-955,-182,-8745,-1160,-13732,2685,2172,445
5781,-1843,-271,-9028,-493,-9170,1885,1608,1170
5781,-1080,-1272,-221,617,-6954,-105,646,1268
5781,-670,3788,4899,6871,3653,-9629,-2679,1806
5781,539,1597,12446,7402,5376,-9342,-2741,1937
5781,-1764,-2060,-13920,-3502,-9005,1640,983,944
5830,-6359,4608,14024,8128,5912,-13662,-4252,3687
5830,-2727,-377,16880,4932,8325,-4369,-1015,1895
5830,2205,4309,-5721,-3108,-4642,4148,3215,-1409
5830,3066,5993,-4783,11,-8236,-1508,1115,-426
5830,2685,10753,-2939,5632,-9242,-14257,-3713,1778
5830,-3042,-3818,12451,-628,13574,5716,6791,-23178
5830,-1658,-3767,14631,-7,7824,2780,5021,-21321
5830,-1948,3144,-8937,-2388,-8752,4390,2319,2800
5830,799,4618,-10041,-2048,-5357,3928,2508,142
5830,1161,9367,226,2206,5914,-6752,2303,-4012
5879,6852,9850,-26645,208,-28696,-2267,2359,-30176
5879,6067,4721,-17538,-3298,-17140,7053,4906,-25053
5879,-4613,8327,-7700,-3066,-8905,2542,-432,2168
5879,-3932,8884,-2223,-2443,-339,1708,-852,1963
5879,543,23684,-1052,1251,11696,1079,-1173,666
5879,-3830,24313,775,6388,11883,-5460,-3039,2621
5879,-2145,26830,-16187,-265,1142,3989,-2813,7777
5879,-1780,28647,-24305,973,-316,2776,-2792,5800
5879,-1866,29694,-22299,2095,-772,698,-3383,5946
5879,1022,42656,-1642,770,1198,1096,-4412,1626
5928,2800,59579,3193,7712,4336,-14466,-9972,3395
5928,972,56481,-11347,5387,-5826,-9863,-8040,2700
5928,577,77669,-3181,5310,6375,-5713,-8717,4740
5928,8,78460,-2023,7880,1327,-15098,-12267,8635
5928,263,84857,-5366,781,1434,3990,-6656,-13673
5928,-392,80923,-2235,1543,2406,1262,-8705,-9749
5928,-2064,78915,-1932,2518,1929,-1680,-9980,-7750
5928,477,102433,5120,5748,1086,-4843,-12451,-7813
5928,1363,101368,6903,7682,944,-11433,-14916,-1421
5928,2349,119435,6670,-57,2074,5534,-13560,1097
5977,-3126,123230,15148,4945,-301,-2599,-23052,3703
5977,-4137,111525,16656,1233,2322,5928,-18291,1530
5977,-3990,129321,-656,1518,1374,2530,-16940,-353
5977,-71,124387,-1156,1324,-108,1574,-15648,-2273
5977,-1598,128556,5162,-3509,9359,9510,-14546,-10475
5977,-660,120793,9983,-4126,9865,7957,-14274,-8214
5977,699,114717,10530,-2201,4901,5129,-14508,-6093
5977,2345,99090,-17042,1853,-4021,3156,-14288,-11806
5977,1613,90845,-12859,1466,-3550,2587,-13221,-11846
5977,137,76939,-3038,8471,-2866,-13587,-13476,-5625
6025,862,66723,8433,6239,2999,-10855,-10345,-11463
6025,-870,62709,12583,5636,3020,-9638,-9347,-10405
6025,-1867,58751,-1891,-2330,1118,6390,7687,-24721
6025,-4334,57282,-1497,-395,889,4372,7572,-24243
6025,1620,55607,563,1693,-443,-2934,7643,-16186
6025,819,52630,-216,2023,-921,-4375,6835,-16895
6025,128,29759,11695,1765,5417,6420,15795,-49952
6025,-666,28364,9435,2404,5733,4941,14526,-45326
6025,-513,28248,7229,3127,6549,2419,13332,-41104
6025,566,34361,-4920,1180,-1242,683,16086,-54747
6073,-2358,35832,-282,6266,-387,-10356,16005,-65775
6073,-2521,32610,-797,4271,-766,-7270,15628,-61814
6073,9396,24002,-9450,3823,-1793,-9302,12980,-90361
6073,7213,21067,-4250,4223,1505,-9835,13408,-85109
6073,-3819,-16206,-1705,316,-633,5962,20977,-115087
6073,-1742,-14829,-2838,884,-2306,4442,19476,-110174
6073,-3211,-29568,1751,1178,1174,1860,15245,-134679
6073,-1966,-27575,-2458,1369,3386,1693,14528,-129833
6073,-1499,-25044,-7077,3429,4092,-257,13848,-125675
6073,-3200,-63377,-12743,1569,-2073,4766,15407,-167615
6121,80,-66961,1228,5177,7773,-6874,13437,-165488
6121,154,-65744,1615,2706,10089,-4000,13286,-158958
6121,2206,-95762,-11808,4164,-403,2028,13142,-191290
6121,2303,-91164,-9771,3523,889,1264,12209,-181480
6121,-854,-97612,-1685,3055,3887,-6985,9981,-187505
6121,-1917,-92593,-6622,1804,-5504,-4657,9225,-174947
6121,2052,-109328,-12243,893,-1541,4075,11117,-188058
6121,1691,-103906,-11540,1480,-1300,2704,9969,-176229
6121,978,-97330,-10566,2293,-1279,709,9433,-165980
6121,-1643,-104061,-11878,2006,4,6764,15726,-173398
6169,-2948,-98619,-6554,6384,-1063,-6615,5230,-148030
6169,-4146,-102158,-9514,10268,-7360,-13434,5986,-146036
6169,-3043,-99039,-10900,7163,-7525,-7529,7850,-138454
6169,-2730,-101806,-12904,102,-3888,10515,11999,-132416
6169,-4137,-110578,-2307,5778,6735,9075,10597,-129465
6169,-4863,-105196,-2434,7022,6798,6569,9354,-120768
6169,1482,-113770,-9871,8706,2419,-1150,8491,-117967
6169,820,-105616,-8386,10314,-162,-8356,6047,-110953
6169,-2775,-120437,-3502,8356,3107,7379,8853,-112562
6169,-2502,-113260,-5700,7918,-485,6566,8504,-106555
6218,-1418,-109558,-15403,2647,4893,8820,9735,-105924
6218,-823,-103611,-15836,2416,6169,9074,9719,-100589
6218,971,-108754,-8912,5567,1468,7173,7945,-97179
6218,2702,-102423,-6412,5662,1040,6086,7671,-93211
6218,-1358,-109105,-11093,5206,287,4016,4697,-105148
6218,-2837,-109782,-14109,-1063,192,17618,6673,-98306
6218,-6887,-112904,-6174,4540,2672,6491,10522,-94915
6218,-4826,-105935,-4882,4503,2828,5096,9683,-90055
6218,-1034,-105840,-7971,9129,-827,-9037,7577,-89969
6218,-1369,-101343,-7944,8238,2056,-6028,6912,-81560
6266,-787,-98192,-7769,8578,6244,-1445,7492,-80335
6266,-3273,-105669,-2189,3172,6759,1544,8481,-84278
6266,-2702,-99064,-5605,2576,6552,-279,7103,-78658
6266,-1901,-92263,-6025,4159,7101,-1457,5598,-72197
6266,171,-94551,-11349,6282,-5211,9856,8167,-78133
6266,516,-89591,-9796,6788,-3945,8567,7128,-74254
6266,-1646,-91084,-14196,3846,-1561,12864,10965,-70224
6266,-3069,-85278,-14284,6741,806,8084,7824,-65801
6266,-3839,-82351,-9688,7760,2151,7414,6898,-63803
6266,-2182,-78057,-8991,6541,1927,7089,7178,-62261
6315,483,-73144,-8229,7512,-97,2675,6645,-61016
6315,-700,-69231,-7231,11316,-4727,-5401,4796,-57810
6315,-774,-62110,-4859,17067,-5251,-15463,2171,-52821
6315,-2112,-57148,-2680,13854,-2811,-17046,1560,-49197
6315,-359,-64409,-8534,1781,-240,10709,8386,-51540
6315,-2085,-60440,-7941,3309,683,9367,7431,-47047
6315,-4902,-62116,-7435,5481,203,7273,4339,-36850
6315,-3415,-58756,-6768,5332,394,6319,3897,-35576
6315,-3481,-59938,-5055,1426,607,10476,6267,-35900
6315,-2820,-56666,-5699,2247,-3914,8285,5407,-32921
6364,1310,-51674,7542,13014,8915,-3170,3965,-33583
6364,-241,-52930,4944,3044,13301,7301,5190,-31829
6364,-3388,-51239,-13976,-1242,-6894,8084,5562,-26275
6364,-2034,-48472,-15313,1195,-4485,6145,4947,-24635
6364,-1470,-44672,-9076,15212,7624,-17628,1045,-20759
6364,-1348,-41155,-6370,15298,8434,-20146,398,-18743
6364,-1337,-54963,-7992,1068,-2123,11596,5334,-16822
6364,-1121,-51572,-7106,1028,-1027,12031,6337,-16498
6364,-1047,-47524,-6181,1527,155,10450,7213,-16647
6364,-9947,-50154,-10847,2955,-31,7805,4625,-6412
6423,-4062,-43620,-2136,8806,-1130,-9014,977,-8594
6423,-4130,-42623,-2853,6243,-1833,-5226,1760,-8121
6423,-5796,-46194,-5681,1985,-541,10089,4117,-8166
6423,-2909,-42907,-4989,2763,-135,8677,1729,-8324
6423,-992,-42970,-3650,1889,603,8302,2145,-3643
6423,-888,-40117,-3457,2558,984,6534,1343,-1787
6423,-2458,-36483,-4110,2823,-2962,3029,1129,-6767
6423,-937,-36882,-5585,319,-3382,10218,2492,-7217
6423,-1601,-35728,-94,3283,6474,7587,2655,-5495
6423,-3216,-33980,1315,1973,4773,6962,2452,-5032
6471,-1809,-23531,-4644,7299,1722,-6187,645,-2411
6471,134,-21313,-4085,7579,1208,-8174,481,-2149
6471,-754,-20627,-5544,6648,-3717,-6867,707,-2050
6471,-740,-27026,-9396,-353,-10270,11175,3178,-2846
6471,-2088,-26581,-5874,87,-8150,10006,2631,-77
6471,-1124,-24801,-13075,1423,1658,7357,2352,-4122
6471,217,-23597,-9264,913,1474,7404,2589,-5144
6471,-491,-22063,-3266,-2267,1973,7497,2743,-5828
6471,216,-16542,-3053,4420,-2253,-2175,-355,819
6471,-2760,-15994,-1253,4166,-923,-2068,-694,4348
6520,-2270,-20069,122,2208,1408,1533,2341,-674
6520,-4297,-19475,-346,1215,477,7485,3876,290
6520,-3656,-15276,1740,3331,937,2463,3173,721
6520,-6138,-17277,-1829,1494,1721,5475,2393,2345
6520,-6984,-12791,859,5610,1699,-5765,205,2194
6520,-2467,-19303,-2058,-1041,1132,9339,2862,-740
6520,-1186,-17744,-2023,-381,1161,7392,2500,-1566
6520,-768,-16224,-1694,422,1462,5053,2119,-1848
6520,2496,-15980,33,548,3166,6170,1727,-1573
6520,1142,-15375,760,2252,3999,4774,1659,-1583
6569,-1075,-12643,7411,4062,3732,-4364,731,-279
6569,-2322,-16177,6585,-137,3719,6057,2331,-1207
6569,-2187,-15999,8059,-749,3826,6676,2385,-1077
6569,-681,-14496,-9187,232,3853,5942,2173,-387
6569,-494,-13052,-9932,553,1767,4560,1859,-523
6569,1474,-14895,-4605,231,-3253,925,792,-2522
6569,540,-10489,-1548,4638,-2168,-9877,-666,-1295
6569,2465,-8988,-647,5214,-619,-9836,-223,-1178
6569,-2221,-19498,-2857,-1428,1390,8225,3150,1063
6569,-4304,-19481,-2870,-413,-1795,5726,2093,1056
6618,7710,-12330,-108,5173,-880,-8909,1659,-7742
6618,7575,-13047,-849,3300,-796,-5066,1841,-6452
6618,5364,-12618,-801,3235,-561,-4839,1169,-4580
6618,-2735,-14851,1097,4093,490,-7527,1229,-4035
6618,-2037,-13110,947,3633,6,-7521,934,-4214
6618,-6103,-19619,-3629,-2279,232,7617,1885,4167
6618,-10286,-18686,-2738,-2196,454,6988,1533,6725
6618,-10868,-17316,-1640,-1197,518,4617,916,7966
6618,-963,-13782,-558,6974,-2056,-8251,197,2090
6618,-2168,-13661,-334,4853,-1514,-6432,123,1985
6666,2615,-13230,-2434,3370,7234,-4090,136,1136
6666,2405,-14235,651,3332,6441,-1316,205,2808
6666,1572,-15859,2302,-265,3836,7098,1656,3160
6666,1924,-11369,-6439,-4595,1857,6706,2296,3034
6666,2373,-11490,-7587,-4326,-5162,5353,1708,3285
6666,7613,-7682,2636,7033,-456,-12219,432,1636
6666,3164,-14205,-1196,-1249,-745,6147,2478,-5
6666,-1292,-17470,-3015,-4551,-771,14833,2901,2038
6666,785,-10678,-2305,-2737,2763,8517,3037,1498
6666,-3126,-9786,-2258,-984,2176,6548,1995,3071
6713,-209,-6183,1019,5227,-1892,-12476,-961,3061
6713,2357,-6153,299,3734,-1638,-7702,-176,2327
6713,4099,-5468,-186,2713,-1086,-2603,1256,576
6713,-1299,-12459,-2899,-1384,-405,8673,3045,1669
6713,-1955,-11263,-2259,-321,128,6416,2080,2215
6713,-1059,-9013,-3135,-1177,-583,6901,4728,263
6713,-2752,-8835,-2854,-1091,-859,6206,4643,756
6713,2323,-945,-563,5176,-959,-16903,-978,-851
6713,1911,-3290,-1221,2308,-1606,-8151,415,-2731
6713,2047,-1618,1047,6346,-2011,-13074,-214,-3861
6762,-4237,-4951,-3093,3212,-3507,-3884,1288,3858
6762,-5538,-6817,-3448,1328,-2516,1687,1779,3944
6762,-5655,-7741,1098,2846,3219,2004,1762,3281
6762,2273,-1875,-13187,1342,-4898,-2300,2120,-2961
6762,2003,-520,-12069,1042,-4770,-2104,2752,-3620
6762,-2298,-8783,-1528,-2047,268,9933,3139,2916
6762,-3466,-8360,-1188,-1783,-1120,9181,3280,1694
6762,3964,-6032,-3067,-2123,-223,8752,4203,-8620
6762,2615,-5551,-2940,-906,-794,6202,3423,-7756
6762,-203,-4852,-2108,884,-948,3630,3154,-7568
6811,-2970,-4105,724,-826,332,1609,1792,-78
6811,-3102,-6273,-1590,-4759,430,10590,3046,318
6811,-1480,-4567,-1323,-3871,341,9005,3088,-858
6811,-900,-6998,-358,-1285,7495,6268,2718,1406
6811,-1601,-5728,-376,479,6851,3558,1870,2085
6811,-138,-1696,451,1077,-2189,-5200,1204,1425
6811,675,-2151,916,1259,-1076,-4423,1673,713
6811,1899,-6111,-2135,-2575,2333,10258,4929,-3473
6811,1058,-5254,-2179,-1864,2402,8507,4000,-4071
6811,-950,-4579,-1754,-956,1839,5964,2572,-1427
6859,-3971,-2813,-1410,821,-1470,147,2195,-1430
6859,-2980,713,93,5057,551,-10366,302,-104
6859,-3243,978,247,5076,2664,-10953,118,784
6859,157,-5133,481,-498,3184,10496,2927,2276
6859,141,-3905,-1823,-203,844,9008,2723,2203
6859,-1963,-3627,1211,-804,669,5829,3274,2893
6859,-3063,-4209,1827,-2863,3210,6736,3414,2581
6859,1452,801,582,3320,-2260,-8196,891,546
6859,4159,878,-16,3016,-2744,-6923,1311,-486
6859,3195,1593,412,2188,-2244,-6877,1345,-2200
6908,-6256,-2987,-1387,723,-512,2649,1709,1889
6908,-6722,-4468,-1962,-1654,125,6830,2557,1650
6908,-5612,-666,331,2291,402,-3199,966,2513
6908,-2779,-2449,-1271,-1342,889,6031,2579,-481
6908,-1291,-2812,-1186,-1349,432,5353,2739,-1680
6908,-1078,-4152,-5126,-4267,-1236,16246,5115,-961
6908,-1582,-3961,-3776,-1624,-1489,10453,3893,-1011
6908,-3424,-499,-2300,865,-784,4905,991,4859
6908,-1414,336,-2746,1596,-1424,4916,1699,2269
6908,-146,1339,-2347,404,-1402,3385,2459,595
6956,2628,830,480,1737,-2238,-5486,3217,-8564
6956,965,-456,-1098,579,-2470,-1220,2972,-4649
6956,-1113,-3388,-2371,-2420,-1284,6975,3385,418
6956,378,-902,890,118,6289,3190,2519,-2422
6956,1480,205,-6780,700,262,1402,1508,-1822
6956,-9711,-3809,-1904,-2346,-1379,4121,2441,2209
6956,-8865,-3200,-2406,-2085,-2209,3117,2259,1829
6956,-1330,-2744,2002,-3380,7612,10247,3770,-1217
6956,-3129,-2032,102,-299,-425,5483,2639,-443
6956,-2495,-5999,8799,-51,1095,1699,1605,881
7005,-4348,-1764,-106,2891,6665,-6268,420,2687
7005,-963,-1736,-9441,876,1868,-486,1834,-4936
7005,-2821,3371,-7542,4433,-4985,-10873,853,580
7005,-3800,5443,-3452,7437,-4839,-19703,-706,1152
7005,-2186,-759,-2838,-4436,-6598,6823,3220,-878
7005,-5229,261,-1961,-4771,-6130,6115,2126,1897
7005,-4751,1821,-1274,-4814,-5557,3295,1201,3167
7005,-3082,-3162,35,321,3622,4884,2918,772
7005,-4245,-3975,372,799,3429,3455,2505,600
7005,-2353,-5414,-1391,-1379,427,5366,3094,-5189
7054,-526,948,1061,3721,-594,-7554,1090,-671
7054,-953,-1820,-1647,-525,-1079,2732,2657,-1717
7054,-335,-4209,-1300,755,546,4254,2664,2474
7054,-20,-3590,-911,441,314,3388,2544,1207
7054,-1023,-2330,-462,653,-354,1223,2157,-664
7054,-721,4855,4035,8508,7029,-21508,-1197,-179
7054,263,3443,3612,5113,7479,-16616,-341,-1152
7054,-334,480,-2129,-2478,-1246,5787,3148,-807
7054,-1053,-140,-1578,-1631,-576,4378,2852,-653
7054,5442,-1257,-4325,508,-3159,5886,4928,-8513
7103,-3183,4716,1606,4897,2622,-12120,180,1395
7103,-4071,3826,491,4167,1905,-8203,14,3489
7103,3951,-1045,-7784,-3213,-6229,10401,4204,-8512
7103,6750,-399,-6727,-3439,-6477,9527,3808,-7523
7103,6051,-287,-3466,-2842,-2964,7961,3788,-6236
7103,-3659,-2474,-372,5134,1981,1795,1725,2170
7103,-4763,-2454,105,4119,523,2043,1702,1224
7103,621,-2726,-6154,-3762,-7618,8755,4123,1743
7103,-2497,-2160,-5599,-2620,-4502,7212,2979,3593
7103,-4853,-4574,2948,-1192,627,2270,1408,5896
7151,-2131,1666,-2557,2961,451,-7143,1244,1616
7151,-1611,2476,-440,2327,-228,-6238,1085,1654
7151,-1349,-1161,361,1338,1564,-2191,1410,3475
7151,-646,1732,4939,4891,1533,-11736,264,2450
7151,-7237,-1271,-1669,-2716,88,6475,2998,1395
7151,-7141,-1163,-1027,-2819,821,5814,2904,830
7151,-4343,-780,-993,-2202,1120,4362,2650,1072
7151,-2048,-449,-837,-957,-1542,2311,2092,-356
7151,-3761,-783,-218,-4465,-869,3055,2429,-254
7151,2948,246,5818,-1584,2110,-5678,2780,-7120
7200,2039,-2047,-6860,-1099,2219,7154,3399,-2131
7200,681,-1457,-5821,-88,3169,6315,3544,-2013
7200,-202,-592,-1115,221,1360,2931,2397,-2434
7200,-1423,495,-1293,816,306,2128,2181,-2892
7200,-728,1872,-771,1526,-482,772,2008,-3540
7200,4097,5791,2855,4623,-338,-12011,-79,4850
7200,3783,4350,2211,3597,-269,-8409,224,4647
7200,-536,-1410,-728,-1190,3332,7219,3639,-254
7200,-1371,-699,-343,-558,2908,5295,2724,3117
7200,-5583,-2205,-2702,1469,1562,2716,925,7335
7249,-4877,2189,3670,5146,-1234,-13706,-165,1764
7249,-2189,1207,3720,3136,-931,-9828,483,689
7249,946,-1052,-2794,-1298,-2305,7477,3737,-2970
7249,1773,-1009,-1667,-1695,-2063,6657,4000,-3398
7249,1640,-900,-765,319,-3109,3081,3471,-3901
7249,-2614,-3485,-2292,-1968,-2065,3701,2261,1749
7249,-1099,-3330,-1503,-1223,-1453,2422,1595,1539
7249,882,5947,-4395,3116,-2022,-10512,631,-359
7249,2097,4067,-2177,1218,-1691,-6947,1060,-774
7249,345,1035,-3360,-7600,-4406,8015,3631,-1828
7298,3904,974,295,1343,-163,-2337,1881,2081
7298,3361,-1948,-1355,-2512,119,7126,3576,-806
7298,-4745,-4111,160,-2548,891,4134,2383,-286
7298,-5003,-3546,133,-2652,-200,3902,2268,-412
7298,-6365,-2264,126,-2181,-845,1602,2082,-812
7298,-2708,4082,-3086,-3802,-1192,8344,3211,383
7298,-1696,3581,-2185,-2913,324,6333,2812,-104
7298,4578,-1589,-2896,-435,-2214,2252,1840,-6567
7298,5725,-1803,-2140,1910,-1713,1859,1484,-3025
7298,2902,2574,3495,4316,2216,-9509,1033,-3516
7345,2890,1472,5170,-1543,1442,-6816,1372,-2411
7345,109,807,4008,-1888,2420,-5464,1389,-2002
7345,-352,-1496,-22,-2089,1500,6957,3408,-2576
7345,-1395,-911,-277,-1813,1727,6198,3114,-2049
7345,-323,-1276,-1062,-467,902,4373,2211,961
7345,101,-908,-1042,-317,413,3583,1962,959
7345,3178,149,-684,-48,-182,1685,2139,162
7345,-3107,4233,-1820,-3959,-4029,-404,1630,505
7345,-11532,-2097,-4527,-9622,-3466,14944,3373,3934
7345,1234,-988,-3855,317,-283,3066,2488,-963
7440,-304,1799,-1698,-1620,-1088,3173,2764,-1465
7440,-130,1118,-1462,-1766,-819,3668,2633,-1049
7440,-450,-765,-1546,-1752,-1328,2884,2787,-3528
7440,56,-468,-1354,-1324,-1335,2236,3309,-6863
7440,12458,6874,-926,396,-2194,-3593,4153,-17314
7440,9927,9512,800,3451,-1847,-11193,3028,-12870
7440,-4712,-5720,-757,-1424,-586,3299,2351,-1259
7440,-4746,-3712,-550,-3925,-951,2906,2925,-2581
7440,-2569,-371,-550,-1615,619,2174,1910,6272
7440,-5127,-382,-256,-2385,724,2305,2056,5841
7488,-1383,3114,2718,6149,-625,-14526,-426,1232
7488,3320,-7,9305,-2357,11123,9329,3053,-877
7488,5515,746,9496,-2441,11609,10379,4256,-3741
7488,6336,2077,6371,-1168,7514,6164,3701,-4474
7488,-6067,-4069,631,-1151,5845,482,1730,2430
7488,-6088,-3283,126,-470,971,-463,1573,2133
7488,777,331,-3668,-763,-107,1552,2880,470
7488,1684,1268,-3524,202,377,64,2418,157
7488,-124,3122,-3812,-4067,-5379,2128,2744,941
7488,1105,3040,-3166,-3369,-5021,1808,2634,1911
7536,-608,-471,-1520,789,-2107,-1767,2100,1340
7536,-6700,-2532,-1482,23,-3106,751,2346,916
7536,-5723,-2548,-1407,-254,-5537,428,1859,1212
7536,-4238,-1555,-791,816,-4941,-2067,1455,424
7536,-2045,6071,2794,6155,-2072,-19305,308,-9809
7536,-1554,3689,1336,3011,-2886,-12055,1036,-8794
7536,1718,111,-3426,580,-4602,2833,2825,2398
7536,3581,1007,-3298,616,-4083,3812,3058,3592
7536,-6085,-2331,-1795,-321,2802,2659,2209,1651
7536,-5821,-1753,-1597,1086,3444,1394,1934,1734
7594,-406,2362,1192,2673,1026,-8950,207,2692
7594,1425,-1466,-3559,-4767,-3947,7363,3996,-1489
7594,1545,-963,-3056,-2752,-2669,5456,3370,-1119
7594,3425,1202,-1940,1568,-485,2976,3303,-2140
7594,2005,1063,-1120,1158,3302,1825,2663,-1819
7594,2158,1158,-255,507,5694,-366,2037,-1599
7594,-2621,-1283,-3291,-2190,-4082,6812,3502,-611
7594,-1889,-932,-2850,-667,-5989,4153,2874,-335
7594,1529,2651,-1620,-2350,-867,2702,2882,-752
7594,-63,3804,-1493,-2152,-936,2194,2685,-1071
7643,4042,3296,5559,2618,-142,-12731,906,-1767
7643,5156,3318,1999,1022,-1613,-8646,1007,-1280
7643,6879,4444,-500,1009,-3282,-7652,994,-3470
7643,-7302,-3343,-1255,-1693,2670,6300,3432,2543
7643,-6767,-3902,-3549,-2645,248,5712,3288,-375
7643,34,-16,-3122,182,-186,2301,2766,-1640
7643,-1479,393,-3206,979,-1170,1047,2013,-839
7643,-442,1032,-2753,328,-2158,503,1769,-510
7643,1391,5623,1559,-327,-2789,-9772,1068,682
7643,-274,-1559,-2765,-6859,-2976,9758,3357,-78
7691,1580,6108,-3602,2236,531,-5829,1938,1218
7691,2839,6012,-3499,1036,1455,-3866,2055,264
7691,3211,3242,-3701,-1188,2372,2413,2714,-1701
7691,3569,4317,2875,1817,-5594,-10449,362,-3901
7691,2054,3357,1564,1091,-5982,-7781,-190,2016
7691,-735,-4288,-1598,-2079,1427,7532,4085,-4240
7691,-812,-4283,-1254,-2316,685,6401,3690,-2370
7691,-1348,-910,-913,-2707,-2723,4688,2983,161
7691,-1784,-1000,-845,-2145,-2453,3699,2499,48
7691,-4044,2774,1316,2764,-1736,-9348,439,725
7740,-485,-190,-2183,-3718,-3558,7676,3614,-2285
7740,-324,142,-1668,-2339,-3136,5702,3124,-1858
7740,-457,-288,-1706,1347,-1291,1522,2044,-1238
7740,-1400,-763,-1173,2912,-1912,1766,2241,-1302
7740,-1379,-1292,423,-2204,48,4130,3127,-1323
7740,552,3565,3743,1082,342,-10863,1321,-2850
7740,2060,2029,4592,-729,2667,-6589,2141,-3497
7740,5525,571,-2112,-1467,-4608,7405,3796,-1448
7740,6891,837,-2362,-1559,-3724,5942,4129,-2201
7740,168,-1917,1488,-372,671,4039,3324,-473
7789,-4443,7325,-5352,6421,-7020,-12611,374,1464
7789,-2391,7195,-4745,5183,-7016,-11901,377,896
7789,-2701,5820,-3198,3520,-4486,-8419,705,1948
7789,888,-3130,-2923,-7738,-1775,15058,5426,-3924
7789,1161,-2084,-2374,-4029,-259,10575,3969,-1803
7789,-2370,-1420,-1140,-1112,-1215,3621,2480,-610
7789,-1722,-1079,-1041,-1156,-5996,2960,2412,39
7789,-713,2936,4068,4408,2679,-10941,514,691
7789,314,2048,3290,3224,2725,-8010,850,581
7789,856,2684,3180,3551,2038,-9257,653,532
7838,-939,317,1549,1414,4474,-3021,1673,32
7838,1724,-2929,289,-2104,5319,6203,3208,-894
7838,3253,-1779,885,-606,6033,2191,2368,-1065
7838,-3940,1330,-2453,-2054,118,3506,2266,1910
7838,-2302,959,-1822,-2018,281,2961,1941,2593
7838,-2366,-3662,-2260,2419,4026,8926,3847,-2338
7838,-3689,-3469,-1096,3512,3604,6205,3170,-615
7838,301,1008,-1641,-2111,1726,2838,1902,537
7838,696,904,-1330,-1941,1451,3052,2086,1454
7838,-870,1627,-1089,-1488,-495,999,1863,1582
7885,-2146,5062,-1809,2804,-5515,-10943,410,-706
7885,-1466,3714,-47,2081,-2886,-8669,572,-346
7885,-3220,405,-892,-5091,-1835,5300,2445,128
7885,-1768,-144,-1063,-4502,-749,4702,2415,-160
7885,315,101,-860,-1063,-354,1958,1724,-138
7885,-3844,-5074,1256,-1242,1126,2368,1753,2934
7885,-4246,-4271,1647,-955,1185,1635,1476,2636
7885,1605,2287,-495,-284,-2866,-1958,1572,-484
7885,2067,-1549,-3611,-4316,-3550,9814,3127,-1306
7885,485,729,3250,-2320,5690,3725,3025,-6748
7933,3491,3823,-251,4396,958,-9234,962,-2445
7933,1731,2021,-1066,1576,-402,-3396,1477,-2592
7933,-3767,2033,373,838,659,-7241,494,2619
7933,-4025,2456,319,-900,957,-6994,303,2426
7933,-4768,1034,-1457,-2608,-679,6826,2917,1800
7933,-2750,2445,-1495,-1926,-995,5771,2521,797
7933,-1656,3664,-853,-1025,-228,4047,2371,-978
7933,6363,1469,-1561,-573,-971,3531,3247,-7063
7933,4956,1151,-1615,-552,-1296,3041,2956,-5870
7933,-1437,-9,-5431,-726,-7188,3420,756,6538
7981,-2364,3141,1813,2911,-854,-6259,1507,-689
7981,-2684,1905,314,1840,-326,-2581,1334,834
7981,45,2105,-1927,-4219,-980,4201,3214,-2464
7981,-548,2428,-2400,-45,-443,2457,2555,-2081
7981,3195,4837,2177,4506,1415,-10316,1183,-2248
7981,2856,4215,2374,3176,2646,-7824,939,1130
7981,666,3303,2481,3010,3130,-7525,203,4007
7981,573,-966,-894,-953,1286,5999,3572,-2887
7981,651,82,-1036,-60,1446,3181,2975,-3309
7981,-7115,-3106,-498,-951,-2074,3577,2463,-38
8030,-1654,3090,2822,1379,693,-12496,527,357
8030,925,2010,1987,381,-1334,-8472,1029,-437
8030,3188,-968,-1232,-2593,1220,11964,4463,-2576
8030,1213,-400,338,-1677,2411,9530,4184,-2503
8030,-2461,-1602,-677,-326,574,4866,3290,-1432
8030,-1964,-682,-1024,-591,209,4221,3064,-1516
8030,-788,387,-1106,-1283,-304,2581,2813,-1699
8030,-2645,3746,223,6226,-5260,-10276,-149,-1879
8030,-2849,4017,-124,8814,-5180,-10287,-579,-1520
8030,1025,-2946,-2937,-3891,-6056,6666,3237,-1305
8079,-2555,2419,704,1815,-2325,-6218,2310,-183
8079,-3722,-806,-1167,-1870,349,3579,3237,-173
8079,-1801,-793,-3324,-2275,315,4230,2774,-1200
8079,-2883,-718,-2788,-1740,-111,3287,2449,-1046
8079,-550,-9,-2355,-390,-835,746,2078,-914
8079,1595,364,-2180,-2464,-344,6093,2981,-682
8079,-1214,-1327,-1318,-1735,-58,4645,2684,-678
8079,-1962,212,-1644,-1820,-4312,4028,3518,-1534
8079,-1166,430,-1304,-686,-5032,3244,3125,-907
8079,-2770,2328,1175,2178,-1063,-6758,766,2962
8127,-1746,5183,4269,3888,-1427,-18731,-1439,4626
8127,-417,1453,1416,-1601,-930,-5221,416,1837
8127,-607,-1440,-1161,-2646,842,6808,2976,-976
8127,734,-880,-1339,-2497,283,6171,2671,-905
8127,4092,407,-957,-1002,318,3268,2706,-2831
8127,4039,749,-873,-1165,142,2677,2295,-3477
8127,2303,528,156,-951,563,1222,1953,-3519
8127,-1208,-2601,-2056,-3599,-1499,8800,3754,-2386
8127,559,-2001,-1670,-2337,-1056,6468,3234,-2123
8127,-264,-112,2903,561,10916,2487,2653,-2185
8176,2265,2153,266,74,-10869,-4693,1283,-1253
8176,3490,-326,-1813,-3112,-10093,4027,2914,-3080
8176,-1083,7925,1692,8556,-216,-19630,-564,-491
8176,185,5560,1184,3246,-198,-12551,339,-807
8176,1102,-359,-1110,-2122,-112,6362,3339,-1271
8176,1238,-754,512,-1775,-28,5548,3109,-1214
8176,-923,-898,2153,-842,130,2904,2701,-1011
8176,-550,714,-6545,-1192,1882,4336,3214,-1412
8176,863,1423,-7301,-598,-280,2988,2841,-1278
8176,-1196,-818,-868,-2232,-78,6449,3286,-1378
8225,1500,2884,1371,3261,3092,-7658,1015,-673
8225,347,390,-157,-925,2214,2284,2275,-1119
8225,-102,1582,-6364,-669,-603,3856,2818,-1743
8225,387,1456,-3961,-699,735,3232,2726,-1805
8225,751,1546,979,572,3716,1045,2544,-1971
8225,-236,3817,-536,2460,-10367,-11495,387,-148
8225,-1815,3183,-527,3387,-9773,-12481,200,57
8225,-2283,-1927,-985,-2584,2334,5031,2801,-1801
8225,-1805,-1636,742,-2474,1043,4365,2762,-1439
8225,3184,548,-138,-1876,-1222,3859,3070,-2100
8273,2617,7999,4143,5735,3138,-12400,438,-746
8273,2293,7440,3317,4377,3968,-10037,636,-884
8273,1496,-1978,-6661,-3516,-5631,7013,3143,-2040
8273,651,-2270,-7297,-1683,-3760,5801,2825,-1787
8273,-2686,-4528,3459,-1465,13480,3923,2706,-1428
8273,-1837,-3837,2405,-2811,7071,4130,2666,-1649
8273,-165,-3105,4235,-3689,-537,3120,2453,-1611
8273,-974,-3221,128,-5089,-9005,4784,2679,-1612
8273,575,-4031,-662,-5764,-14264,6312,2722,-1265
8273,-1812,-2295,11834,-1462,3868,3024,2517,-2039
8321,-2277,-757,-11039,-2012,-5089,-2439,1303,-1172
8321,-886,4619,-17788,5086,-13032,-10794,164,-1078
8321,814,-1685,15368,2969,8872,-8936,296,-971
8321,894,706,15389,4719,2542,-12005,-51,-1036
8321,3100,2271,-4722,-3215,6118,7803,3071,-2842
8321,1010,2134,-5506,-894,5540,6289,2692,-2611
8321,1732,3627,-7504,-48,730,3619,2466,-2690
8321,-705,3043,6115,-2600,-3573,3340,2550,-2591
8321,-1403,2303,7089,-1778,3122,2340,2179,-2340
8321,-1712,1133,-7275,2472,17569,-7411,115,-1546
8370,-2348,-1561,96,-1931,-8438,94,1953,-2425
8370,-2217,-3212,-1967,-2397,-12964,5786,2685,-2800
8370,1418,-12,-14688,-2422,-4050,2612,2432,-2757
8370,1592,-173,-12990,-3333,-5793,1466,2204,-2318
8370,870,-1558,4936,1024,-9357,-13085,-850,-743
8370,665,-1997,12290,1178,1816,-12356,-793,-909
8370,-567,-2155,16024,1112,3014,-11315,-503,-1288
8370,1311,1645,-16779,-3854,1688,4918,2119,-3101
8370,1452,1631,-13726,-2950,5159,3429,1773,-2943
8370,1773,1577,-10319,-5955,2062,4152,2510,-3905
8418,1484,6058,-7868,165,-9416,-9129,-127,-2504
8418,2453,6833,-8113,1946,-7013,-13511,-1005,-1873
8418,2951,3379,3927,-1239,-22570,-6285,423,-3600
8418,1924,5877,-2491,790,-23535,-12651,-728,-2758
8418,1067,-4737,-8576,-8744,817,4659,1106,-3043
8418,1649,-4457,-8069,-8227,768,4384,1041,-2863
8418,1116,-5105,-5147,-6174,3480,3961,1156,-2583
8418,3163,-1544,124,-4709,-7006,-1346,739,-1568
8418,3236,1997,6614,56,-4791,-13150,-1277,-387
8418,1674,-6284,24518,-8249,-9265,4698,1187,60
8466,150,7482,-6038,2847,4568,-7424,-512,1382
8466,1118,5651,-7405,1899,-371,-4493,189,924
8466,817,-5207,27826,-5571,15652,5893,2561,1891
8466,-127,-3349,21129,-4767,19263,4889,2126,2188
8466,1843,264,-5937,-2124,3713,-2772,793,7988
8466,1370,-2517,-11191,-6385,4953,7365,2219,7065
8466,4014,397,-13550,-6362,-8298,4102,1655,12755
8466,3719,2072,-6894,-8420,-8985,4191,1909,11824
8466,5525,2974,-4797,-9359,-9276,3977,2161,11017
8466,323,-7867,22294,-4581,2279,790,1234,17658
8513,3818,14435,-27568,-1115,-12836,-13849,-362,18551
8513,62,-6670,8399,-8837,6564,3214,875,24802
8513,-181,-6022,10906,-7251,10294,2880,1367,23365
8513,1264,-3885,11245,-6333,14070,2381,1932,22239
8513,1978,-4031,3158,-5464,773,2732,2176,32398
8513,2423,-4,-7403,-9124,-5370,2332,2157,30966
8513,3551,5944,-3456,2673,-16486,-11792,689,38907
8513,3548,9793,-24135,7554,-17787,-22516,-1977,39008
8513,1451,-970,26979,-3742,5347,5808,2293,44402
8513,2006,1103,13237,-2936,5673,5096,2113,42236
8571,5260,10856,-9955,-5670,-14828,927,1229,42173
8571,4022,9219,21714,-491,-7943,-542,-214,50753
8571,3616,10494,26571,2129,1301,-9749,-1629,49506
8571,5031,16743,-3482,-7132,-5954,3305,1056,55919
8571,6315,14585,-1821,-6580,-16639,2407,1221,53010
8571,3982,21791,-8970,-741,-20439,-1622,6096,60308
8571,5126,21138,3599,-1459,-7706,1521,7336,56719
8571,3138,21396,13771,-3318,6061,551,7172,54353
8571,2230,35142,-28584,826,181,-9341,11424,62334
8571,1459,32947,-15332,-238,2317,-9469,10479,59529
8620,6056,35242,-19266,-10008,-23854,-616,16083,68860
8620,3357,33386,-25253,-11386,-14911,5597,16087,65085
8620,3039,34770,-15532,-6950,-9069,-2754,13428,63255
8620,3614,27702,50302,-6504,4284,-502,15092,70023
8620,3720,26830,57143,-668,-6714,-13013,11592,68390
8620,1766,23905,38757,-5985,-3010,2657,14417,75878
8620,806,26232,19376,-8099,-17153,2935,14172,71810
8620,-577,22181,28552,-6879,-3952,192,13088,68660
8620,1859,21184,38104,-4004,14961,-1442,13664,78475
8620,2151,23089,32512,-4026,25420,-1117,13208,74299
8668,-4193,35429,74440,-2626,36540,-10590,9421,88897
8668,-3104,35213,56747,-3291,23263,-6789,10265,83151
8668,349,32562,38246,-6269,11889,1568,12147,76737
8668,8351,34978,22736,-12985,-12094,2069,13002,83966
8668,5972,30688,3945,-12189,-26077,609,11564,80149
8668,7672,32367,19685,-13226,4048,2242,13489,87417
8668,2256,23866,27507,-8414,9224,-410,12286,83397
8668,747,23850,29705,-4661,6573,-6417,9979,81645
8668,3905,18353,-3035,-11715,-8715,5172,16794,88535
8668,2638,18679,8597,-11004,4286,3079,15410,84684
8717,-6598,-27569,65235,-6602,39055,-2612,15538,102928
8717,-4054,-24563,47107,-8724,2325,-3078,14682,97373
8717,-1233,-9088,19246,-8577,-30191,-13548,11550,93536
8717,4008,16308,-31336,-1173,-20115,-16030,12957,99849
8717,3676,7264,-23523,-4871,-14531,-6326,14738,93063
8717,6411,11905,17046,-10541,-7957,3349,23520,98005
8717,502,13990,10509,-9357,-18413,550,20938,95049
8717,-1111,8422,16594,-7505,-17980,-3259,18274,91861
8717,5983,4603,17405,-7306,18110,-1108,22974,96651
8717,7109,5718,37554,-5362,21909,-7720,19937,92512
8766,5798,26242,-19691,-997,-10684,-9847,20243,100465
8766,4790,29905,-37368,2004,-901,2022,21903,93549
8766,3258,28076,-13642,6221,-147,-7572,17289,90998
8766,3614,22719,10357,-19698,3156,7631,24316,93856
8766,1715,17439,34893,-17511,9177,5348,22271,89723
8766,5630,51449,-2146,-3793,-69,-17305,15480,100267
8766,7336,38313,16634,-10145,9501,4127,20872,90859
8766,9193,33108,34865,-9393,19885,8574,21657,83918
8766,9002,44772,-13759,-10139,-5883,3531,20136,90376
8766,7650,41324,-14391,-12137,-14631,4688,19821,84832
8814,7203,65025,7738,-13584,-26196,-10056,12541,98337
8814,6430,63817,3961,-10205,-20697,-8932,12145,92282
8814,6154,55038,4544,-8341,-12660,-7109,12275,86438
8814,1161,54269,4911,-10108,-2407,6448,14554,90828
8814,2527,48619,4048,-8920,2185,5774,14107,84966
8814,4058,49921,7227,-9113,27440,3682,10860,89981
8814,3013,47103,21267,-7723,29914,3189,10448,84032
8814,-1032,39686,25844,-5027,19438,-463,8482,80561
8814,722,40963,-12460,-10480,9007,5178,5948,84537
8814,3086,45178,-18363,-10498,-426,4133,5188,79455
8863,620,40546,-31148,-3341,-8613,-6741,-5267,85229
8863,-140,32985,-18468,-5815,-4314,2355,-2291,79401
8863,2269,34796,-3913,-3781,-3646,-610,-2988,75452
8863,3994,55441,-47876,-3882,-22868,-6651,-11775,77931
8863,2748,54466,-38359,-3222,-10196,-6189,-11180,73124
8863,-520,33397,3587,-7408,-8166,2990,-13509,72414
8863,-330,30197,-8565,-9944,-33616,3623,-12259,67806
8863,-704,26304,-20263,-8265,-43972,1394,-12238,64430
8863,-1206,22709,22245,-1260,11749,3311,-14647,65184
8863,-667,20101,41811,-2247,10237,1706,-14810,62339
8912,1343,33176,-3257,-4354,-7827,-12295,-25793,67926
8912,1628,25689,1053,-8649,1163,-2671,-21590,62356
8912,-1831,18665,2203,-5846,4473,-522,-19683,59015
8912,-2453,35604,-41439,-8555,3874,1907,-21295,57789
8912,-1365,31431,-43938,-8783,-338,2242,-20342,54418
8912,-4385,26634,51425,1532,-9215,-9318,-28898,56496
8912,-4439,28105,46017,1805,-13652,-8140,-27068,52926
8912,-4564,28033,34609,2751,-6758,-7732,-25837,50022
8912,2932,10267,-7683,-6387,3734,1983,-28890,47470
8912,588,9564,-9388,-4967,3698,628,-28287,45390
8961,-1231,23303,148,5678,17151,-18627,-42602,48304
8961,100,27618,-22853,3562,-7006,-14581,-39345,44797
8961,1730,35403,-39451,2214,-23165,-10621,-35996,41073
8961,-3566,21021,-42245,-2697,-21207,7385,-33099,39161
8961,-3170,25840,-40040,-4124,-12497,8091,-31065,36260
8961,4659,18420,-6655,-2270,5599,3435,-35570,35029
8961,2109,15944,331,-621,20041,4213,-33255,33058
8961,1420,18746,-4567,-1154,16517,4154,-31090,31050
8961,1594,19774,15444,3659,6321,-7384,-38742,32874
8961,992,19491,8024,1910,2621,-6611,-36435,30431
9010,-25,17941,5305,-3094,-2117,2582,-38448,31067
9010,2164,18132,-6979,-4266,1330,5078,-34707,27146
9010,1891,24056,-12237,866,1266,-7014,-36804,26779
9010,3935,17813,-10285,-1063,5512,348,-38179,27688
9010,5634,28306,-30667,-1544,-16551,-4679,-37744,26555
9010,-1304,16743,-19125,-4979,-920,5850,-35055,24189
9010,111,18603,-17841,-4014,-1677,4825,-33325,22952
9010,-347,17183,-8031,-2027,44,2951,-32240,22309
9010,3534,13867,6218,212,2729,-419,-33685,21331
9010,5136,12204,5346,-766,11447,1313,-31416,19925
9059,4565,61027,-21451,-4214,-21422,-4747,-35517,20499
9059,4674,46194,-11273,-5955,1130,1147,-31636,18463
9059,1786,29873,-6759,-2396,11145,-574,-30542,17807
9059,740,26084,-9137,-2596,-24732,2450,-30638,16931
9059,-322,23852,-15715,-2681,-27263,1302,-29346,16443
9059,4086,29357,-22707,-738,-9864,1049,-29275,16035
9059,3674,33572,-29803,-580,-12521,-7003,-30944,17122
9059,2895,34138,-28599,-795,-10947,-13323,-32274,17858
9059,-2458,17186,3931,-191,14578,3199,-26172,14218
9059,-1481,17341,7957,678,18963,2305,-25053,13383
9108,7585,23534,36102,14626,24044,-17003,-32795,15416
9108,8421,18273,26899,9808,9737,-12070,-29564,14157
9108,5862,13685,8593,1426,4470,-6784,-26642,13242
9108,-1367,14481,3014,-7845,-7383,12309,-20553,10999
9108,-4048,12675,2069,-5721,-3468,13543,-18096,9228
9108,-4532,17895,-4246,4379,3870,605,-24023,12320
9108,-4099,22899,-5451,3395,2268,258,-22880,11721
9108,-3620,25516,807,1320,5624,-1419,-22179,10744
9108,2411,32547,-22705,-1733,619,-9452,-25553,11391
9108,4468,34813,-16566,753,4051,-10951,-24907,11435
9157,-2726,18253,4307,-4982,-3194,1388,-21173,10005
9157,-1937,15497,823,-4594,-9752,3637,-19056,9045
9157,-2182,19074,2393,1084,-7895,-7443,-21914,10348
9157,-112,14526,-7940,-4355,-18346,3723,-18199,9508
9157,978,13360,-27590,-4277,-27507,3207,-17040,8203
9157,-4266,4758,8294,-6887,11434,10248,-14946,7730
9157,-2807,2324,7737,-5149,11507,6339,-14976,7326
9157,-644,13855,27873,414,19286,768,-16443,7752
9157,107,11907,25541,43,15760,1424,-15098,6581
9157,-40,10301,14154,671,5659,-1315,-14897,5985
9205,-6712,13331,11845,5283,13629,-14863,-20775,11156
9205,-3491,11248,6698,858,12220,-10734,-18418,9732
9205,1493,5356,19872,6933,31565,976,-12949,5818
9205,832,2218,12458,8986,29884,39,-12312,5680
9205,-428,3494,11239,10359,21210,-2399,-12647,6120
9205,3885,19673,-7295,-1999,-31196,268,-11757,5213
9205,2116,16671,-5595,-3344,-30039,-1247,-11906,6050
9205,4329,11894,5635,-6487,7257,2868,-9202,3750
9205,-1616,11026,12546,-4812,2263,123,-10016,5033
9205,-4099,19198,-1741,-2643,11712,74,-10680,5949
9253,-2187,24172,-10608,2820,-3398,-11929,-14273,6678
9253,-1861,18410,-7538,1414,4315,-7725,-12474,5835
9253,751,9534,15586,2962,868,-9024,-12136,6306
9253,2278,8586,9773,2990,424,-9141,-11732,5722
9253,4349,10450,4961,3240,1079,-10043,-11521,5148
9253,-1500,14023,-7987,-5497,-25105,4998,-5341,2127
9253,540,21822,-9532,-3576,-19770,3789,-5391,1867
9253,-2442,7473,793,-1043,10829,1002,-6103,3879
9253,784,12410,-16139,-1781,5052,1529,-5419,3326
9253,-1666,9640,10206,-7776,-9968,7572,-3611,2871
9302,3534,3934,1261,2825,21752,-5359,-8204,5135
9302,3412,6413,-869,1838,14345,-1320,-5643,2772
9302,-2473,7271,6633,-952,-9590,208,-5970,4034
9302,694,8319,6284,298,-9169,351,-4975,2838
9302,1249,10646,2128,2150,-4478,-1348,-4816,2401
9302,645,18787,-7129,4190,-5048,-9587,-7526,3476
9302,610,17444,-4846,3666,-3551,-8842,-7123,4095
9302,4725,10102,-5409,-1372,-12361,5368,-1553,1152
9302,2855,11878,-17939,-3495,-20584,4634,-1915,972
9302,2011,7330,17110,-2652,-6347,700,-3967,2881
9351,-6516,13694,-9978,5352,12440,-16480,-10469,6839
9351,-4835,12489,-9318,6635,12327,-14332,-9241,5780
9351,1252,12400,-1129,-1064,-323,1920,-2516,2913
9351,2468,14635,-8168,-660,-3136,215,-2991,3020
9351,2860,15683,-6941,-2642,-1925,633,-2979,2923
9351,-2975,5011,-12049,-2681,-14392,-274,-3142,4520
9351,-4722,3701,-9961,-247,-5558,-426,-2701,3630
9351,-1967,7575,18208,3299,5769,-8286,-5375,3154
9351,-977,6672,16072,2067,3802,-6703,-4340,1829
9351,9584,1853,-18616,-7927,-3806,5641,-129,92
9400,4559,11562,-8569,3483,-13785,-2612,-2746,1974
9400,1542,5377,-6502,-1448,-8733,4824,315,744
9400,-40,5173,1447,2448,-856,-3200,-2692,3112
9400,-3716,3608,-2239,647,5427,1049,-1211,2335
9400,-2487,4394,2814,2186,7081,-1372,-1954,2461
9400,-2056,170,3286,-1699,620,3838,-418,2983
9400,-909,314,10335,-1462,2198,2802,-686,2378
9400,-1969,-2061,21916,620,29460,2043,-995,2585
9400,-889,-2172,28412,3952,32304,-204,-1484,2468
9400,2121,3594,26167,4179,-7323,-10273,-5534,4711
9448,-1353,-2804,-12368,-2144,21733,5171,956,1167
9448,-711,-859,-20696,-2970,3091,5779,1709,72
9448,-1215,-7981,-6168,111,2536,2482,260,630
9448,-415,-8925,-9649,-1206,-15335,2317,138,828
9448,-3641,-6854,-8938,-781,-21265,-470,-959,2050
9448,-3460,5134,-184,2557,12398,-800,-679,2545
9448,-3956,2662,5055,2247,5936,-1569,-1228,2896
9448,2395,618,8626,-5863,-874,4580,1184,26
9448,4501,-2202,18567,-2837,3485,1835,461,-577
9448,2894,7144,-6562,-985,12591,1701,1095,125
9497,1995,2981,-2084,-701,-3458,-1111,-354,1100
9497,2261,4387,-2595,-1133,-2838,-474,-57,653
9497,-1537,4631,-8250,3683,-3803,-6449,-2104,592
9497,-3130,893,-19840,-1166,-10978,2301,699,5
9497,-3738,237,-24108,-3542,-18476,5152,1633,17
9497,3716,-925,18181,2,-4859,773,177,138
9497,4435,-1304,20664,2493,1564,-1279,-237,-1224
9497,-582,9463,506,2052,-4868,-2098,96,-3793
9497,588,7875,4006,2719,-1929,-2659,110,-6015
9497,-1732,10226,-2574,-913,4426,647,-372,-2221
9546,-3408,14768,-6217,4326,-7831,-12623,-4049,485
9546,-3731,12680,-5330,1187,-4102,-4202,-1221,-935
9546,89,16427,-4214,4104,39,-7893,-2149,-1580
9546,-1388,-576,26969,1529,17392,431,-127,-4237
9546,-772,-378,29471,-569,21673,596,-417,-4180
9546,-277,6976,-13174,-1884,-2977,5041,1130,-592
9546,1725,6387,-19858,-2815,-9612,6752,1989,-2106
9546,-583,9025,-4835,-529,-4821,279,-347,-6377
9546,-2647,8692,5588,4586,8303,-2761,-586,-7544
9546,-7356,7855,14215,7142,20225,-5528,-1713,-5967
9594,-257,20254,17458,6078,19478,-13762,-3983,-4378
9594,-934,19009,28214,5343,37315,-11326,-3182,-4191
9594,-1333,34750,-2740,-662,-3616,2970,4393,-9073
9594,-3794,33676,2138,-257,2796,2436,4402,-8720
9594,-3771,33370,1154,698,-1331,138,3208,-7333
9594,4175,56827,-15999,-1695,-9421,1595,6879,-9749
9594,3575,55731,-13322,-934,-5571,525,6310,-9504
9594,1651,77091,-5330,-2814,-4699,5659,6196,-10426
9594,2603,72773,-3998,-1756,-3768,4480,5413,-9527
9594,1855,112751,-596,3356,-868,-129,969,-5677
9643,2560,122359,588,5210,-1527,-10054,-2995,-12028
9643,2472,113221,-1106,1219,-1101,-778,541,-12406
9643,-1829,138598,13518,7834,2315,-11746,-5822,-9340
9643,-1199,131830,11378,7527,2145,-10482,-5445,-9078
9643,-1102,126836,6284,7581,1779,-10370,-5447,-8448
9643,-877,152574,4911,20,1933,5651,4916,-14040
9643,612,145770,3750,1346,2581,3618,3482,-12795
9643,-1629,165629,-21240,2950,1434,742,-3443,-15799
9643,-2423,155376,-8764,2170,2622,547,-3520,-15010
9643,-1585,147066,293,1943,2736,-827,-3933,-14443
9692,-152,155884,19205,1399,243,-1714,-3088,-20087
9692,-391,145328,24612,929,2498,868,-1846,-16852
9692,-3376,141981,32004,6135,4524,-10476,-5045,-12535
9692,4683,117932,-3520,374,-7977,1655,3467,-24319
9692,5082,111005,-6798,1366,-9798,89,3145,-22814
9692,-4582,104120,11943,4089,7153,-7770,11698,-26395
9692,-4798,98060,11394,4884,5798,-6759,11054,-21415
9692,2787,80528,6427,3573,2173,352,17907,-27787
9692,1525,75327,8366,4406,6323,-936,16743,-23157
9692,1618,59670,-2195,2339,-2485,2045,23279,-38015
9741,-3459,65938,28630,12849,6968,-17258,17473,-35647
9741,-3723,59646,27698,11346,10625,-12824,17854,-34396
9741,-623,36057,-4196,-1727,-2312,6032,26426,-55257
9741,1197,33872,-1289,-5548,2069,7029,25562,-52988
9741,-2864,29680,1359,6355,999,1758,25703,-71376
9741,-1387,28675,31,5566,441,1930,24695,-68647
9741,1973,28110,-836,4835,-628,1385,23702,-66290
9741,-2417,21637,507,4541,-9152,-5398,25324,-83486
9741,-2600,20124,2945,5881,-6391,-7360,23073,-77603
9741,-5493,-20271,5165,1942,-427,4604,26072,-87427
9790,1997,-18418,-2824,7928,-1105,-10172,17792,-84689
9790,-185,-24520,986,1617,652,5341,25933,-85289
9790,1150,-28292,-3006,3194,-2414,4526,35060,-98498
9790,-1746,-27418,-2115,3020,-2008,3200,32225,-91930
9790,-1560,-23037,200,5785,-1602,-5155,28506,-85484
9790,1541,-35963,-2122,2794,1702,5482,28644,-93814
9790,971,-33895,-1315,2619,1841,5083,27049,-88976
9790,1609,-68454,730,2464,5003,2254,26627,-92983
9790,1901,-65393,3630,3289,3796,373,24458,-87806
9790,3411,-90751,-8681,6260,-2409,-7261,20758,-104497
9838,-799,-90295,-7284,5603,2,-2884,19058,-102363
9838,-1105,-90000,-8292,3888,-1070,4599,19244,-98806
9838,-5674,-114087,508,6337,10627,1035,15111,-122009
9838,-4014,-108629,-609,6678,12134,166,13638,-117203
9838,673,-119066,-14530,7804,426,2618,15879,-145801
9838,-970,-113426,-12776,8261,1571,2062,15117,-140050
9838,-1059,-107318,-10802,8653,-44,523,13927,-134393
9838,5624,-119214,5608,5918,-812,3011,12211,-156704
9838,6318,-111949,1629,6403,-1098,2370,10796,-147409
9838,1894,-120629,-10165,7887,3041,-843,7050,-144271
9887,-2246,-111298,-11658,7511,-6454,-2878,9555,-146982
9887,-1666,-107464,-11298,5331,-4443,3006,9486,-139581
9887,-6496,-114079,-12054,-6,-994,10484,12512,-130273
9887,-4893,-107481,-11423,1985,-1134,6399,11079,-120889
9887,1747,-103186,-10573,8004,-2010,1897,11027,-124199
9887,761,-98207,-9291,5761,-1535,3707,10650,-116491
9887,98,-92353,-8099,2681,-190,3231,9814,-109416
9887,-2975,-95375,-9763,2856,-398,544,9591,-103135
9887,-4956,-89675,-9100,4785,-558,-257,8724,-96935
9887,-5599,-101239,-5844,-834,-3556,5153,8627,-92569
9983,-5849,-78070,-7941,10708,714,-13679,4997,-85523
9983,-3513,-74417,-7993,9127,873,-10962,5322,-82695
9983,-140,-83676,-8450,2650,324,13638,12076,-87771
9983,104,-78866,-7248,2677,559,11383,10736,-82645
9983,1489,-75768,-8206,5695,-872,3322,6493,-84338
9983,3892,-71073,-7425,1702,380,4572,6801,-80499
9983,3940,-66181,-6711,3297,1511,2261,6472,-76909
9983,-411,-65265,-6326,6084,-1802,489,6477,-71863
9983,1340,-64590,-8156,789,-1878,9825,7958,-70422
9983,-193,-63319,-7477,689,177,4184,8570,-67185
10032,-185,-60936,-11006,6488,6378,1372,7982,-65644
10032,-1,-57247,-8469,8475,4470,-1099,6913,-62592
10032,2597,-52455,-3270,7341,2989,-8823,4939,-62018
10032,2783,-50613,-2081,7248,5149,-7249,5036,-59178
10032,-397,-58481,-15600,2595,5632,6151,7475,-65781
10032,-660,-54731,-11924,1489,5385,6306,7874,-62681
10032,42,-50726,-6275,1313,4265,5337,7748,-58298
10032,-3696,-51159,-4852,3098,3028,5325,6460,-49928
10032,-461,-46498,-4484,542,2515,4551,6946,-50367
10032,-7015,-51654,-6304,1506,-72,9090,6856,-48910
10081,-6521,-42789,-2227,8376,-39,-8072,5934,-50117
10081,-4520,-42781,-3893,3967,-146,1270,6696,-47553
10081,-4530,-46195,-3430,2136,1380,7360,5510,-38612
10081,-3559,-42454,-3857,3761,995,4842,4344,-38582
10081,24,-36916,-2060,6663,-1755,-9446,3262,-32647
10081,454,-34886,-2159,5634,-1051,-8391,2993,-30561
10081,2500,-31999,-2137,6064,482,-8781,2644,-28920
10081,2990,-39458,-5251,405,2511,8477,5796,-29271
10081,2701,-36546,-4722,862,2271,6267,5214,-27023
10081,-2896,-36223,1617,6343,9944,4669,6006,-24370
10130,459,-24733,-2996,12264,-2646,-10868,3817,-22718
10130,-1568,-24991,-3808,9387,-4214,-7123,3868,-20716
10130,230,-35785,-12690,-2723,-4145,14846,4855,-16975
10130,571,-32896,-11787,-2486,-4829,13787,4595,-15479
10130,6867,-25998,-5515,3513,1447,7284,5792,-14274
10130,6855,-25346,-3783,3913,1158,6050,5441,-14894
10130,7567,-24594,78,5518,2176,3105,4296,-13671
10130,-6005,-22728,-1787,3354,-860,-4079,2902,-9550
10130,-5846,-20682,-1738,4065,1003,-4832,3298,-12382
10130,-5669,-22883,-3367,1468,3729,4238,2827,-7809
10178,-1790,-19392,-748,4586,2059,-1045,4744,-8214
10178,-2450,-17325,146,5458,2225,-4622,3459,-6031
10178,-3689,-21463,-1919,1344,3580,5714,3152,-3520
10178,-2375,-20049,-1581,1665,3666,4743,2876,-2466
10178,-3864,-24551,-2830,-667,2627,9567,4539,-4622
10178,-1422,-22556,-1874,1008,3286,7654,3998,-4133
10178,-439,-19787,-1012,2800,3830,4681,3390,-3529
10178,-354,-15524,-1432,1103,6053,5479,4205,-4832
10178,-1578,-13840,-1079,2304,6341,3622,3603,-3764
10178,-4007,-8223,4274,3028,-10419,-8356,1608,-2003
10225,-4414,-11094,7463,6937,4635,-9609,891,-1582
10225,-4301,-11284,6640,6142,5927,-7010,1242,-1627
10225,-2674,-11364,-4080,-791,306,8029,4278,-3076
10225,-1195,-10953,-4179,-542,92,6336,3723,-2519
10225,-1823,-9502,-1390,880,4122,6950,3869,-837
10225,-1473,-9309,-1494,1466,1854,5748,3359,313
10225,-1022,-2652,-5631,4698,-1191,-8837,1241,-1240
10225,-1359,-1438,-1882,6411,102,-13354,471,-1041
10225,-2474,-8140,-3774,-226,-159,3158,3111,-2761
10225,93,-8866,-909,-1976,3819,6805,4562,-6052
10283,-542,-4164,641,3264,3255,-4012,2515,40
10283,-3946,-7313,1232,2218,4657,-2777,2643,437
10283,-2568,-7208,1106,2767,4320,-2476,2560,75
10283,-957,-6326,1437,3833,4093,-4499,1831,793
10283,1822,-8768,1903,-2856,5354,10110,5227,-2710
10283,1036,-8482,1677,-2237,7591,9279,4763,-3127
10283,5184,-8185,-2208,-752,2148,7130,4341,-1228
10283,2948,-7412,-1770,-656,2009,6097,3616,-420
10283,-1030,-10251,-3322,-2502,-635,10507,4435,1907
10283,-1522,-8651,-2890,-2105,696,9185,4434,109
10332,1447,-1942,-442,1808,-2798,-3871,2881,-622
10332,144,-1277,-877,2121,-3551,-5227,2223,-518
10332,-1442,-4707,-2335,-1635,-1764,4820,3812,-838
10332,-8316,-4915,533,2012,2561,-6259,1514,2849
10332,-7406,-5003,1457,1476,2769,-3757,2168,2534
10332,-3329,-7514,-3295,-134,2418,7779,4021,-3766
10332,-5358,-7222,-2461,-1433,2904,8152,3718,-2635
10332,-4426,-6549,-1667,-1731,2863,7063,3393,-1702
10332,408,-6433,5106,-4,-1543,5574,4092,-195
10332,1553,-5840,6172,840,1158,4659,3722,-1196
10381,-2144,-2954,-503,1964,-900,-4870,2007,2412
10381,337,-6626,-2162,-2404,-973,4579,3676,-212
10381,-433,-7335,-2263,-2957,-757,6230,3882,-1159
10381,-3448,-7093,-1369,533,4025,5159,3858,4783
10381,-2697,-6689,-809,1063,3676,3205,3133,6209
10381,-1451,-2678,83,3882,1831,-5003,2544,1684
10381,-1381,-2713,433,3832,2024,-5174,2186,1644
10381,-1177,-2013,1034,4519,1974,-7158,1592,1926
10381,4189,-579,-2686,-1042,3334,8955,4551,1466
10381,5948,-1490,-2623,-1270,2433,8258,5533,-1670
10430,758,-968,1604,5653,1833,-10552,1024,843
10430,1624,-2012,766,3841,1819,-6580,1525,49
10430,991,-1902,441,3369,1797,-5309,1692,-191
10430,-6061,-7720,-2353,-2422,2390,11232,4791,293
10430,-4942,-6482,-2233,-1664,2052,9652,4481,251
10430,-3243,-7755,-2358,1573,2917,5200,3129,938
10430,-2901,-7871,-2195,63,808,6695,3355,1184
10430,-1254,-7210,-1945,-2680,1417,6542,3261,1460
10430,-2807,-1427,-1050,2345,1233,-4850,1767,1841
10430,-1897,-1683,-2226,2263,-478,-4123,1872,2001
10478,656,-1449,-13,3051,2470,-1153,4228,-4120
10478,188,-2123,-561,2246,1633,-1016,3884,-272
10478,1073,-6509,-2422,-890,1244,6411,4717,872
10478,-1199,-11383,-89,-1099,600,6021,3117,-1912
10478,-381,-10164,-532,-566,9,4532,2634,-2159
10478,-1662,-12192,-2781,-2929,2087,11394,4079,4767
10478,-4149,-12626,-1910,-1953,3338,9122,2902,6616
10478,-4087,-11768,-1134,-750,3786,6189,2488,5766
10478,428,-13633,-1886,-2663,-332,6688,4652,-3349
10478,-1564,-12775,-1156,-1896,53,5548,4338,-2746
10526,-1218,-7046,2250,4606,1983,-7677,1609,2192
10526,-1128,-3223,4248,7896,1144,-17726,175,811
10526,87,-5800,2197,3685,843,-8489,1602,-2174
10526,-975,-11396,-2200,-1930,1242,8662,4078,-1384
10526,-3415,-11133,-1793,-1704,1649,7845,3765,-803
10526,395,-8620,-1449,-253,2659,6064,3522,-1064
10526,1267,-7685,-1683,619,1398,5125,3317,-1289
10526,-1054,-15222,-3320,-6253,-5812,13534,4736,-1294
10526,-2333,-14237,-2285,-5127,-4677,11613,4668,-1171
10526,-1147,-12093,-1530,-3153,-3226,8377,4369,-1430
10575,1707,-7871,787,3904,6200,-6016,937,2078
10575,1594,-11073,-1274,-600,6056,4738,2582,352
10575,5834,-5599,294,3130,904,-5675,3116,-7164
10575,-3644,-4006,6985,7753,430,-20200,-539,-587
10575,-4091,-4805,6936,4983,759,-16656,41,-2177
10575,1117,-12172,-326,-1907,2078,9139,3576,807
10575,93,-11464,-812,-1897,1386,8638,3547,-828
10575,1437,-10470,-802,-1436,920,7069,3700,-2707
10575,569,-9156,-2843,-1803,-734,6065,3593,-1733
10575,3107,-7867,-2851,-135,-729,4064,2955,-1197
10624,-3111,-9163,922,3462,169,-6246,1914,737
10624,-3412,-10826,-450,356,123,356,2970,148
10624,-1715,-12285,-1607,-1786,339,6091,3674,-196
10624,2487,-8416,436,-1538,1630,6363,3766,382
10624,2340,-9111,489,-1205,1241,5134,3883,-1236
10624,1799,-847,4667,7862,506,-19302,-665,2859
10624,3744,-3006,3632,5791,267,-14488,668,-1104
10624,4602,-6533,1243,1599,69,-4336,2435,-4957
10624,-8205,-11167,-1531,-3011,1187,10125,4478,1465
10624,-8194,-10248,-1432,-2576,1038,8827,3889,1789
10673,-1376,-4213,2382,7165,684,-11425,1433,-2402
10673,-1412,-5146,1395,4538,-2622,-6373,2702,-4389
10673,-1351,-5934,1458,-1706,-2407,-1622,3412,-4283
10673,-3174,-10247,656,-4105,1448,12527,4873,5073
10673,-1994,-9178,1359,-3280,1256,10882,4367,4737
10673,-713,-6081,-3002,-3784,-1210,8768,4345,-1209
10673,-2364,-5926,-2202,-4092,-553,8556,4131,-744
10673,-942,-5672,-1760,-3220,-499,7175,3904,-689
10673,2228,-6331,-3289,-3915,-7350,11019,5025,-1945
10673,2297,-5102,-2280,-2784,-5254,8217,4421,-1633
10722,166,-5053,-411,-870,2657,3652,2991,-5094
10722,-1779,-7080,-950,-1611,2702,6057,3179,-3188
10722,528,-4059,1281,2892,2404,-4864,1396,-1745
10722,1570,-4430,1394,2046,1890,-4654,3678,-4762
10722,2018,-3982,1115,1633,1568,-3989,3494,-5501
10722,-4237,-5077,-1337,-1756,2754,7846,3898,-1886
10722,-3666,-3621,-1156,-1544,2660,7286,3863,-2002
10722,-1631,-2191,-826,-1023,2547,5911,3587,-1858
10722,-2251,-5752,-1027,-926,2142,5562,4095,-415
10722,-2433,-4956,-625,-305,2017,3924,3955,-428
10771,1000,-1504,-923,1582,510,-3383,2440,-115
10771,2610,-3909,-2343,-2203,687,6064,4202,-1177
10771,3797,-2177,-1402,-471,529,2369,3780,-1327
10771,-5728,-7620,-179,-1146,1209,4616,3544,67
10771,-4972,-5593,-270,758,2330,3486,3013,191
10771,1318,-450,-338,-75,-4026,-6724,1734,569
10771,2342,-433,-830,647,-5256,-5549,1803,669
10771,4507,149,-694,1949,-4798,-5596,1821,524
10771,646,-7732,-931,-1632,3473,6905,4228,-1767
10771,-641,-6859,790,-478,4769,4276,3863,-2267
10820,-1512,3161,3453,6260,-118,-12544,725,1871
10820,-2513,2830,2372,4536,1464,-9768,1059,2873
10820,-2496,1893,1143,2898,3182,-5950,1574,4027
10820,-3038,-3710,-3417,-5989,441,15501,6890,-7726
10820,-4723,-4034,-2195,-4287,766,11796,5032,-519
10820,-2515,-3928,-1328,-1870,1234,5341,3367,3984
10820,-991,-3375,-1140,-1752,1149,4983,3017,3192
10820,424,-2420,-452,-932,944,2971,2946,1930
10820,832,-41,1390,2144,526,-5983,1603,-2175
10820,2180,-219,1253,2008,248,-5904,1802,-3502
10869,7091,2416,-1118,-800,-104,612,2968,-3189
10869,5783,713,-2211,-2454,-12,5774,3391,-1371
10869,2634,2802,-143,1152,-39,-2430,2086,241
10869,-594,-3021,-950,-2468,-132,5231,4553,415
10869,-1291,-2661,-701,-1794,-71,3841,4024,-2718
10869,285,1189,-2299,-3915,-2052,8499,4429,-968
10869,964,154,-1963,-3577,-2102,7280,3965,-753
10869,2226,-590,-1361,-2594,-2064,4837,3486,-843
10869,-2304,-2360,-1723,-683,4109,3586,3513,-769
10869,-670,-2282,-1411,-1185,3978,3543,3551,-1146
10917,-1058,-442,10,-1884,1455,1634,3219,-122
10917,-704,-813,-2359,-1279,-2182,5180,3409,-601
10917,-2142,700,-2403,1173,-5133,3545,3256,-515
10917,-269,-58,-4936,1105,1584,2424,3866,491
10917,2000,514,-3932,958,1733,2066,3951,-1265
10917,752,-1634,355,-816,294,2761,3820,-2427
10917,1351,-1046,652,-449,73,1721,3642,-2898
10917,-5310,-1614,1104,-3287,1675,8255,5620,851
10917,-5781,-1653,3761,-2444,2024,6511,4674,2986
10917,-1963,2693,-1165,-1541,-530,2579,4098,-228
10966,-1943,-1647,3628,3840,447,-11019,747,3489
10966,-1521,-4564,1238,-383,154,-255,2504,2068
10966,1713,4885,3816,3837,-640,-13729,1514,-2350
10966,1864,4201,2804,3052,-1023,-11003,1869,-1676
10966,2699,6377,4014,5764,-1433,-18105,262,631
10966,1287,-712,-1661,-788,258,5326,3084,-84
10966,249,-256,-1499,207,0,4268,2977,-761
10966,-3435,-1610,-951,-3232,-147,5193,3844,239
10966,-775,-1021,-1020,-2208,-95,3987,3690,25
10966,-3426,-4064,-1146,-3997,-809,5791,3739,91
11015,527,771,-1087,-2158,-1364,1782,3219,687
11015,-1132,-341,-1966,-3012,-736,5719,3725,345
11015,-798,2852,281,1398,-247,-4277,1990,847
11015,-4357,73,-1107,-3216,-3238,3693,3856,-1108
11015,-4804,-654,-854,-1665,-2902,2761,3431,-308
11015,1262,5630,5302,3277,5446,-11681,1032,976
11015,1064,7792,5065,5471,6610,-17035,-191,1422
11015,710,-1861,-3906,-3305,-327,6466,4649,-4921
11015,-1309,-2149,-2172,-1239,1128,5206,3897,-663
11015,-1107,-1740,-399,597,2969,2373,3235,1131
11063,6043,4223,1514,3582,-1946,-10785,1677,-7801
11063,6687,4319,1232,3137,-2034,-10310,1814,-9049
11063,-1213,668,-3401,-3039,-1460,7380,4165,2544
11063,-460,201,-3033,-2766,-1752,6737,4317,130
11063,-1315,166,-2164,-1951,-1863,4192,3807,-587
11063,-2150,-3037,-436,-2822,-871,4109,3311,1744
11063,-2901,-2335,-525,-2812,-1730,3006,2715,2073
11063,763,6700,2600,8899,-4903,-21836,-1587,3029
11063,804,1051,-481,2848,-4607,-4488,1047,2094
11063,4,-770,-736,-2179,258,5053,3202,2875
11112,-3820,3469,1059,1036,-1732,-4452,1280,3282
11112,-3598,384,26,-4648,-329,6916,3315,1879
11112,-2313,1468,762,-2529,414,3479,2792,1775
11112,3760,5211,753,-851,-271,-6124,1859,551
11112,1956,5071,619,-175,-351,-4626,2485,19
11112,-1813,-4755,-654,-4538,1982,7824,4204,-1144
11112,-2413,-3671,-40,-4298,3955,6384,3570,308
11112,3244,161,-1470,-3992,-5562,4951,3297,2300
11112,911,478,-1224,-3260,-4834,4430,3109,1786
11112,618,-1651,-1093,-1442,927,5148,3926,-2695
11160,-1677,2893,-1216,-1822,-7772,-1346,3297,-1803
11160,-1735,3500,253,-1047,-7413,-4471,2238,-25
11160,-704,-1142,-1411,-1080,2438,4982,3405,2406
11160,-1233,-2333,-1330,-293,1692,4570,3423,1313
11160,-1221,-2800,-765,481,835,3204,3097,574
11160,284,8074,278,5452,-825,-11324,284,-160
11160,456,6599,-24,3272,-710,-8880,1159,-1082
11160,-4056,-1462,383,-1918,8292,7746,4049,-918
11160,-2139,517,-367,-1692,4190,6272,3562,-840
11160,57,-1022,-2085,1534,-1063,4144,3641,-554
11208,-1664,1890,2475,-1533,2007,-3738,2290,116
11208,1147,5192,4901,1818,1272,-12423,561,1009
11208,4287,-3223,-4912,-3600,-3015,12943,5438,-5549
11208,2425,-2886,-6468,-2973,-2538,11809,4867,-4281
11208,1998,-1765,-5513,-4792,-339,9032,4109,-2042
11208,-3444,-2508,-785,-2434,-2287,4095,2920,6883
11208,-4765,-2016,62,-1827,-1301,3467,2712,5741
11208,1282,635,628,389,1960,1128,2877,-1324
11208,176,3891,2725,4536,941,-9970,1061,-2658
11208,575,-1039,-1002,-2022,-1840,4563,3791,-2083
11259,-627,-2440,-1484,-2543,-335,6210,3987,-2454
11259,324,-1449,-1189,-2022,-96,5326,3492,-2372
11259,1895,870,-863,-357,-216,2092,2770,-2570
11259,-55,1920,22,-2415,-2224,3072,3249,-1151
11259,916,1513,425,-1775,-1725,2058,2867,-1189
11259,-38,-1001,-174,-3067,803,7382,4017,-1733
11259,1024,-163,-126,-1524,1370,5522,3835,-1493
11259,-2364,-1650,140,155,-5610,1956,2336,1360
11259,-2260,-638,-132,-424,-6017,1813,2456,622
11259,-1539,143,598,-420,-2638,-96,2245,62
11307,442,2836,339,2640,-498,-4984,1873,-866
11307,-3862,673,-1191,0,-332,3823,2232,5899
11307,-3603,4818,1599,4943,-1014,-9081,54,8851
11307,-1697,1134,80,-41,-899,3074,4203,-3602
11307,-1225,-300,1304,-309,1526,2645,3806,-5240
11307,1044,695,-917,-1981,-4102,1680,3209,-3584
11307,-1784,636,-783,-1696,-3518,1365,3191,-3845
11307,-6427,-2310,-914,-4115,-570,7873,3924,1554
11307,-4960,-1158,-843,-3232,-357,6450,3663,419
11307,-2496,218,-608,-2122,-277,4409,3231,-186
11355,140,-763,242,2556,-1305,-4553,1913,-2260
11355,1681,2932,1655,5130,-1460,-11233,992,-2652
11355,-2483,2882,3314,5422,549,-13031,538,780
11355,-2583,5757,4433,7723,903,-19323,-625,1308
11355,-1808,3749,2869,5302,1826,-11103,455,817
11355,2588,-422,-2354,-2949,-1214,7268,4095,-2176
11355,2923,-731,-1890,-1865,-252,5894,3612,-2095
11355,3383,795,-281,420,5059,3217,3006,-888
11355,2676,243,-139,194,4942,3120,2996,-1182
11355,3605,-1935,335,-1697,4441,6338,3947,-517
11404,-3803,2123,-2021,-1053,-2115,588,2691,-373
11404,-3537,1085,-2136,-2326,-1433,4714,3168,-496
11404,-1800,4869,421,1625,-1060,-4805,1467,531
11404,2059,-535,-1327,-1660,-2057,2749,2784,-1613
11404,313,447,-1496,-1410,-1512,2643,3012,-2238
11404,-2769,6248,6246,7532,378,-22920,-1188,4009
11404,-2355,5017,4893,6089,-4,-18617,-714,3572
11404,8989,-1005,-1264,-1752,-492,6395,4752,-3554
11404,4656,-1415,-999,-1369,-139,5497,3799,-594
11404,-1695,-853,-303,-179,483,2282,2517,2563
11500,2878,1807,-742,-4415,-3980,1950,3173,-2213
11500,4091,1018,-547,-6989,-359,4115,3619,-6693
11500,936,-522,126,-1429,5095,3834,3553,1805
11500,4203,609,20,-678,4327,2610,3510,-25
11500,-530,2209,-1025,-2002,-813,4714,3445,-848
11500,296,1404,-254,-1701,-1082,3579,3236,-1106
11500,-4342,38,-923,-10,-778,2394,3331,-1077
11500,-3999,570,-1306,224,-751,2002,3075,-1103
11500,-3736,1206,-1126,875,-1468,-23,2710,-1183
11500,-3875,3408,856,3662,-331,-7135,1710,-568
11549,2958,-3161,-256,-2197,329,5325,3388,-2251
11549,4984,-2283,780,-1080,864,2731,3262,-2645
11549,3768,-1064,-583,-708,497,2475,2326,-2266
11549,4765,-998,-1033,-1196,-846,1849,2354,-1811
11549,-5495,-676,634,-298,-747,2184,2775,-2504
11549,-2440,-855,287,-355,-1432,2060,2783,-2847
11549,616,598,724,1098,-1873,-2376,2030,-2486
11549,-1505,1131,-2432,-2376,-1695,4875,3284,-1872
11549,-2030,2088,-1229,-1174,-586,2217,2723,-1497
11549,1480,2804,-775,-4324,616,3297,2862,-2132
11598,-1142,4956,3129,4436,-987,-11696,798,3502
11598,-1388,4465,2754,3820,-1644,-11505,545,2629
11598,-350,-976,-623,-2317,-612,4542,2729,-1096
11598,-1285,-3391,-1972,-3326,-1086,9674,3262,30
11598,-3402,725,-1799,-4149,-4043,4603,4186,-1923
11598,-2085,257,-1586,-3287,-3811,3689,3493,886
11598,-2501,296,-700,-1186,-2941,883,2494,1972
11598,1872,784,-553,-3919,-1428,1580,2382,-588
11598,1803,2382,1104,709,-1046,-4430,1487,178
11598,-474,-4183,-1166,-1668,-3765,2685,2593,-1586
11647,1488,3817,993,1051,-1363,-4191,2331,-4855
11647,-1208,1462,42,-1506,1880,3430,2729,-2250
11647,-1946,-2544,-552,-1933,2005,2745,2617,-476
11647,-2322,-1870,-62,498,2305,738,2136,-128
11647,-1067,-2188,1,-2380,2110,6862,3949,-2690
11647,-572,-1061,-71,-509,2863,5161,3218,-1491
11647,-1468,85,300,426,3026,2369,2590,-815
11647,1609,-829,-999,-1324,-782,1892,2675,-2450
11647,1349,-266,-594,-971,-1023,1051,2305,-2353
11647,372,3349,-617,3771,-2904,-8381,1617,-3348
11695,-2393,5214,4851,4932,-2218,-9998,986,-2176
11695,-3617,3421,5395,4494,-1288,-7673,997,-2197
11695,-6869,-3699,151,-653,835,2911,2049,2079
11695,-2089,-3359,374,-782,1124,2611,2236,855
11695,1098,2361,-1402,-1312,-1395,2858,2972,-3279
11695,-1094,1554,-1268,-1251,-1595,2458,3078,-2573
11695,-1570,1189,-997,-247,-1968,-159,2650,-908
11695,-4921,-2719,-715,-550,1618,4384,1621,826
11695,-2767,-1635,-499,234,3003,2715,1840,-574
11695,2998,1012,-203,-773,-374,1720,2597,334
11744,-391,-537,-671,-1103,-3086,453,1970,-186
11744,-80,-1747,-617,-1140,-2521,1289,1872,-242
11744,53,3458,1494,941,-963,-8213,621,1183
11744,223,2881,1130,522,-2762,-7153,740,620
11744,4985,875,-2604,2119,-3969,1973,2490,-1841
11744,1837,-82,-780,-2864,-1341,3642,2727,-1016
11744,1322,514,-218,-2250,-245,908,2031,-694
11744,6573,-3487,-2003,-276,-784,2368,3220,-3191
11744,6615,-1997,-1446,26,-2058,1176,2970,-2683
11744,-1824,-3288,-639,-487,-165,3200,3001,-1616
11793,-800,3021,169,1638,-590,-4070,1912,-174
11793,1123,374,-1054,-983,-1502,3019,2849,-519
11793,-3165,1594,-1164,-2384,-6226,1948,2925,-2537
11793,-2185,1736,-818,-1950,-4832,1055,2508,-2002
11793,-1974,4259,1098,2630,-3214,-8641,410,1780
11793,-1175,3440,1229,2376,-1766,-6712,926,2289
11793,1286,4557,2078,4187,-1412,-10884,285,2846
11793,2744,-1369,-602,-2267,-2069,3293,3276,-5879
11793,1875,-1167,399,-880,-1127,943,2597,-2718
11793,917,390,-711,-2027,-1673,2526,3013,-3788
11842,963,6135,2576,5131,623,-14862,415,-1374
11842,1665,5215,1644,3766,250,-11318,751,-1609
11842,2788,-2417,-644,-2431,4348,5486,3256,-3457
11842,3149,-2392,-642,-587,3669,3965,2952,-4097
11842,-875,-91,-170,1839,1768,1752,2504,-473
11842,-407,724,-354,1099,1565,1171,2149,-644
11842,322,2233,-190,468,1610,-296,1877,-967
11842,-754,1717,2140,1133,3091,-5078,1252,517
11842,-350,4363,3413,4062,1370,-12495,25,695
11842,3819,122,2795,-1986,2090,4134,3027,808
11891,-1544,4512,7768,2459,-853,-8857,808,-620
11891,328,1686,5421,-705,-309,-824,1960,-924
11891,-1291,1829,-431,590,-2845,-2717,1491,-437
11891,-998,3567,900,4114,-4090,-11904,-46,-193
11891,-881,3292,194,3120,-5109,-10308,139,-31
11891,-2096,-2193,-2305,-4298,-387,8701,3536,-1367
11891,-336,-854,-1500,-3672,756,7332,3249,-1522
11891,1729,886,-1390,-3044,-1986,5837,3475,1570
11891,837,1435,-1528,-2587,-1699,5251,3134,1335
11891,1503,2411,1091,2658,-2584,-5947,1509,-527
11940,5309,4373,-70,-1051,574,-1648,1641,2461
11940,7120,1193,-1909,-4371,481,6861,2910,2955
11940,-2069,-979,-73,-2759,1965,4070,3166,-4027
11940,-2919,-733,148,-4612,-914,3635,3039,-3745
11940,-1978,402,79,-4510,-4257,1853,2739,-3320
11940,-2150,1958,2039,2826,304,-7802,1016,-1788
11940,1093,2581,1567,2617,-1195,-7403,1077,-1914
11940,3091,-1804,-1283,-2610,1426,5794,3057,590
11940,-951,-2562,-931,-3365,1041,5315,2558,1994
11940,4183,712,-1528,-1597,-1271,3985,2999,-662
11989,-9336,7723,2535,3903,-911,-11395,465,47
11989,-7095,5923,1629,2082,-1004,-6878,814,-184
11989,-716,-4229,-2790,-6034,-1228,14596,5020,-2617
11989,-1183,-3693,-2055,-4589,-691,11658,4389,-1490
11989,-234,-2760,-1330,-2709,-415,7398,3203,-367
11989,-155,-2281,-448,-819,-944,4425,2816,-1360
11989,-477,-819,-601,867,1842,2340,1961,-915
11989,2593,4003,1916,1616,1277,-8931,764,1104
11989,90,3840,1646,2124,2244,-7667,561,1489
11989,-1802,-2616,-1288,-1942,1321,4906,2948,-567
12037,-2451,2221,1718,2997,335,-8589,365,3370
12037,-1731,-243,-449,102,318,96,1591,2085
12037,36,-499,-1990,-2986,483,3476,2778,-3374
12037,-902,-378,-1960,-1119,538,2447,2488,-3069
12037,-821,-153,-965,221,932,856,2262,-2472
12037,3961,1926,2429,4384,-1026,-14989,-123,-3352
12037,7184,1141,880,1037,-2834,-7768,859,-3781
12037,-3035,-1135,-1671,-2034,-1691,4992,2080,344
12037,-1518,-491,-1088,-1851,-1575,4132,2281,-187
12037,6644,5069,979,4067,-2117,-9650,1466,-1382
12085,-1878,3144,441,1228,-1282,-5232,813,2358
12085,-2698,3370,506,1611,-383,-5469,884,1195
12085,2193,-1484,-2106,-2996,-2124,6943,3578,-2374
12085,2843,-802,-2016,-2238,-2212,4878,3043,-2760
