timestamp,ch1,ch2,ch3,ch4,ch5,ch6,ch7,ch8
66,0,0,0,0,0,0,0,0
66,-599449,596416,363316,-840750,-146078,1218315,605342,-661877
66,-562830,561737,343761,-790621,-133660,1145825,569275,-622580
66,-527790,528837,323083,-743681,-126157,1077743,535674,-586154
66,-499285,496457,299686,-700869,-118652,1017552,504173,-550726
66,-469015,467556,281917,-659008,-112309,955832,474186,-517442
66,-442535,440845,266159,-619377,-106965,895876,446007,-486569
66,-414101,414286,253205,-583644,-98293,845243,419974,-459503
66,-389528,390171,238649,-548655,-93225,793318,394942,-432233
66,-368364,366508,221466,-515902,-88572,746772,371606,-406150
114,-346216,348442,212470,-483623,-94185,685914,348025,-381268
114,-324580,327347,199919,-455644,-86724,647828,327541,-358731
114,-306259,304317,185828,-431420,-70156,627601,310078,-338411
114,-286676,286603,174909,-405492,-65981,589849,291722,-318387
114,-269735,269702,166172,-381285,-62297,552511,274141,-299135
114,-253825,254055,156480,-358410,-59082,518674,257860,-281487
114,-241417,239048,146080,-337892,-61599,485102,241839,-263981
114,-226982,221658,134394,-320177,-50677,470722,228631,-249011
114,-211616,209889,126107,-300655,-49445,438522,215043,-234364
114,-198752,198933,121442,-281900,-49538,407895,202106,-219934
162,-186571,190868,117523,-262517,-46259,370503,189512,-207482
162,-176785,180195,111385,-246553,-45724,345364,177937,-195208
162,-165216,169933,104378,-232375,-47544,323762,167355,-183087
162,-156969,159405,98647,-218673,-44263,305113,157414,-172178
162,-147837,145391,90496,-209096,-29862,306327,149711,-162800
162,-139148,137148,85205,-196382,-28787,286770,140725,-153032
162,-129192,129498,81847,-185251,-27359,268567,132295,-143627
162,-122309,121325,78059,-173732,-24484,252146,124422,-135224
162,-116672,114345,74496,-162269,-23560,233747,116698,-127126
162,-109553,112015,76148,-151047,-34860,204383,108303,-118241
211,-102837,100855,56332,-146513,-22577,214623,103533,-112295
211,-95089,94284,55581,-137709,-18909,203354,97492,-105700
211,-89247,89288,54569,-128698,-18477,188488,92095,-99440
211,-85326,84297,51352,-121069,-17673,176816,86628,-93451
211,-80350,82856,51274,-111066,-23556,150242,79861,-87743
211,-74550,78436,46725,-104509,-25015,139928,75138,-82265
211,-69183,68638,41237,-101292,-12443,152105,72282,-77868
211,-65300,64619,39276,-95189,-10646,142476,67984,-73390
211,-62956,61707,37572,-89007,-10731,130498,63743,-69024
211,-60647,57887,35062,-84473,-11847,123767,60016,-63821
259,-56145,59965,36247,-75951,-22508,94102,54940,-59104
259,-51528,56586,34345,-71546,-21928,87882,51393,-55423
259,-47923,45204,24901,-74010,-5388,116708,50536,-52881
259,-44963,43600,22755,-68885,-7218,106567,47531,-49756
259,-44991,42078,28678,-62934,-3859,93781,44340,-46197
259,-42462,39654,26607,-59143,-5003,87606,41595,-43694
259,-39131,42688,23953,-53279,-19137,62150,37714,-41129
259,-35355,39960,20948,-50637,-20578,60259,35578,-38751
259,-34357,38119,20171,-47240,-20426,54614,33284,-36369
259,-33034,30086,19374,-47037,-1891,71972,32727,-34628
307,-29247,30000,18583,-43688,-5228,61704,30397,-32645
307,-28796,27501,16831,-42831,-3284,63283,29157,-31201
307,-25877,25891,16653,-40305,-3223,59238,27451,-29663
307,-25313,25184,17066,-37264,-4420,52442,25661,-27957
307,-22843,19645,11885,-38302,1862,66431,24402,-24951
307,-21916,19214,11789,-35095,314,58894,22959,-23489
307,-19339,20112,13185,-31252,-2191,46339,21718,-23212
307,-19457,19089,12211,-29420,-2482,43262,20337,-21907
307,-19088,18492,10326,-26885,-2408,39005,18799,-19669
307,-17879,19573,11000,-23916,-6934,27604,17077,-18393
364,-17916,20304,11253,-21904,-12480,15293,14961,-16461
364,-15910,14503,8707,-23724,1522,37368,16246,-16887
364,-14672,13950,8541,-22387,-198,33105,15176,-15760
364,-11734,12807,11542,-20561,2182,30063,14305,-16168
364,-12431,12419,8389,-19354,-646,27978,13404,-14988
364,-10517,12765,5406,-17955,-5798,23099,12400,-13721
364,-10345,12162,8163,-16872,-3623,19178,10585,-10546
364,-9548,7660,5546,-18049,5160,33148,11021,-10207
364,-10965,9333,4952,-15661,631,23326,10561,-10048
364,-8980,8822,4632,-15149,-491,21692,10073,-9433
412,-8015,11206,6150,-11020,-4994,5492,8077,-7768
412,-7688,13235,7522,-8425,-11101,-6611,6584,-6845
412,-7518,12571,6860,-8279,-11067,-5380,6166,-6434
412,-5336,5579,2995,-13352,1908,22733,8259,-8073
412,-6061,4828,3071,-12380,1058,20675,7702,-7307
412,-5960,5424,3281,-11389,878,17099,6907,-5665
412,-6370,5161,3088,-10559,697,16123,6471,-4890
412,-4308,5312,3044,-9650,-695,13784,6070,-4369
412,-4284,9460,5817,-7277,-7802,-4650,4606,-4277
412,-5153,10020,5017,-6322,-11078,-8502,3638,-3713
461,-4734,3709,3597,-6902,3749,13229,5338,-4939
461,-4380,2875,3187,-6183,5087,14583,5240,-4493
461,-2614,6900,5743,-2287,-4124,-4716,3504,-3272
461,-3594,7660,3909,-5358,-7637,-6647,3014,-2389
461,-4810,6120,3311,-5498,-3909,-2598,2896,-2109
461,-4691,1724,-3515,-8126,2169,17379,4318,-3115
461,-4334,1544,-1834,-7535,2322,16117,4123,-2937
461,-2675,1620,-442,-6914,1841,13154,3863,-2726
461,-4094,968,2062,-5371,2953,10788,3309,-2200
461,-3536,1026,2361,-4815,4144,9612,3112,-2296
510,-1526,4583,2362,-3845,-3699,-2692,2037,-914
510,-3349,536,-1646,-6496,5009,15073,3245,-1493
510,-2997,2692,-997,-4382,483,4823,2519,-1068
510,-1196,1029,891,-4882,4650,10166,2935,-2326
510,-19,1015,839,-4431,4124,9039,2690,-1694
510,-2130,6448,1352,-1889,-8054,-11487,809,256
510,-1690,5348,199,-2187,-6461,-7616,902,52
510,389,5235,260,-1780,-6519,-8050,706,-239
510,-954,-905,391,-5427,6123,13917,2549,-296
510,-1042,-489,396,-5235,5411,12340,2319,-144
559,-2285,6149,4684,-924,-7896,-16112,212,-450
559,-746,4835,3963,-1569,-6030,-11248,214,-395
559,-568,3533,2929,-2134,-4086,-6449,363,-394
559,-784,-2799,-3023,-4962,8905,19746,2506,-1940
559,-638,-1942,-2070,-4194,7656,15429,2132,-1691
559,-1979,-815,1236,-4164,6825,10214,1954,-284
559,-451,-665,2045,-3831,5810,9416,1812,-377
559,-231,88,3425,-3132,3563,5607,1461,-389
559,889,3943,1829,-1397,-4193,-8492,63,143
559,435,3508,1843,-1000,-3793,-8217,-30,82
608,-85,767,715,-3838,3221,5278,810,454
608,1276,-496,179,-4113,6084,10008,1172,768
608,1263,2950,2785,-1165,-773,-5717,279,1540
608,-82,-623,-4214,-2901,935,6745,1316,227
608,-2014,-4,-4769,-2100,-27,4179,1032,876
608,-110,-2863,-1827,-7369,7331,16460,1934,1113
608,420,-2191,-1455,-5507,6040,13354,1753,1005
608,-726,-280,-782,-3178,2395,6696,1465,85
608,-1252,-129,-852,-3089,1997,6229,1228,1052
608,-1771,409,-547,-2727,824,3980,824,2067
656,-2517,2850,2336,-1164,-7484,-12088,-950,2597
656,-751,3219,2669,-434,-7415,-13507,-1132,2564
656,2521,-1006,-358,-3396,3374,6379,979,-364
656,972,-1037,-329,-2814,3247,5765,849,-264
656,931,-657,-209,-2254,2039,3727,562,208
656,-948,97,-1068,-3165,1446,4699,689,2205
656,-341,294,-856,-2967,1027,4127,548,1921
656,1367,-3032,-2162,-5066,7116,14797,1248,1408
656,494,-1842,-1702,-4012,4976,10548,1090,1005
656,1467,-460,-2370,-3298,1179,3808,590,47
704,1959,3582,4757,-253,-6581,-14636,-651,1848
704,2076,1341,3692,-1979,-2210,-5319,-224,1251
704,892,2901,791,-574,-5174,-9869,-984,857
704,981,2339,797,-706,-4408,-8583,-837,820
704,2123,5149,2686,1506,-10908,-21131,-1477,1112
704,-2152,-2057,-1219,-3749,5072,8843,882,2270
704,-1807,-1732,-957,-3826,4358,7342,901,2184
704,-251,-239,-1061,-3088,4748,5334,368,2452
704,-717,-135,-697,-2527,3600,2894,196,2098
704,78,-3769,3280,-4318,15008,11916,680,2699
753,-1049,-795,-4282,-5941,256,9173,966,2383
753,56,202,-3571,-4211,-2337,2466,409,2783
753,1554,-1011,-69,-4089,3648,4699,304,1280
753,252,-829,793,-3233,3002,4011,349,1184
753,387,210,1392,-1604,1030,520,152,1558
753,1091,2031,818,-1084,-5904,-9665,-1265,1512
753,-596,5506,3170,1543,-12730,-24401,-2148,2336
753,1239,-1521,-2206,-4294,1745,7295,518,2028
753,-673,-1048,-1771,-3453,505,4693,215,2365
753,1351,-882,-782,-1815,3795,4535,-127,2982
802,4715,5678,2030,-129,-9823,-18134,-527,-2261
802,3500,4975,1857,-334,-8888,-15784,-746,-1982
802,220,-2827,-1475,-4107,6591,11184,659,2855
802,-117,-2466,-1106,-3726,5931,9396,431,2720
802,-1495,-1398,-562,-2617,3737,5007,-12,2700
802,446,-732,-1511,-3499,3198,5805,-152,3842
802,285,-338,-1030,-2905,3346,3704,-271,3800
802,654,2121,959,-1364,-4382,-7962,-1000,2121
802,703,1371,400,-2442,-2295,-3625,-480,1355
802,219,-1003,-1600,-3860,2429,5955,130,2069
851,-1302,837,333,-1762,-4628,-3226,-939,3186
851,-198,-1564,-845,-2914,1619,6738,-166,2786
851,-973,762,769,-958,-1606,-3423,-693,2921
851,319,4274,1696,-884,-9321,-16628,-1438,3228
851,-1088,3127,1172,-1425,-6944,-11462,-1412,3183
851,1451,-2653,-5384,-4034,4412,9723,466,1855
851,1145,-1968,-5488,-3256,2627,7402,358,1924
851,298,-536,-2657,-3114,1120,7417,270,1324
851,1361,-764,-2341,-2869,597,6461,131,2134
851,1017,2527,1287,-776,-2824,-7004,-681,2186
899,-1004,2001,900,-945,-1924,-5986,-912,5613
899,-248,1802,684,-1166,-1506,-4383,-983,5179
899,2364,-722,-1084,-3130,5168,7522,-49,2505
899,2070,-603,-1031,-3117,4657,7104,223,1959
899,-22,-141,-678,-2804,3343,5160,354,1335
899,-588,-59,-719,-3864,2660,6064,333,4379
899,1489,2945,1157,-1121,-3811,-7273,-487,4066
899,-2225,-1994,-1131,-3518,6008,8900,-382,5541
899,-684,-1508,-936,-3013,4713,7089,-385,5174
899,2000,-566,-1192,-4523,3166,7492,547,2373
947,239,3299,1275,-641,-4616,-9949,-621,3355
947,598,5598,2795,1114,-9803,-19379,-1422,3368
947,594,5028,2729,300,-9088,-15485,-1428,2842
947,441,4696,2460,-167,-8334,-13575,-1401,3439
947,1045,-1911,-1671,-4513,5736,14045,353,3166
947,-3673,-2429,-696,-2961,4148,9410,313,4643
947,-3006,-2127,-486,-2462,3404,8111,458,4243
947,-1746,-1442,-68,-3025,6356,7612,381,4454
947,-1486,-1305,147,-2902,5686,6721,369,4160
947,840,-886,-1289,-2876,4525,8467,170,4632
996,-193,-101,-819,-2665,4607,6318,94,3969
996,-103,-213,-555,-2242,5674,6453,276,3756
996,-1407,-300,-1321,-3013,3265,6751,224,5333
996,-845,-198,-1140,-2796,3040,6046,261,4592
996,-225,357,-518,-2127,1477,2998,250,3984
996,884,-2783,-2209,-5619,8788,17504,746,2496
996,984,-2047,-1731,-4481,7197,13414,659,2637
996,945,335,-406,-3673,3823,6414,378,6037
996,1154,871,-213,-3008,2274,3862,145,5781
996,-43,1171,10,-3202,3098,4901,122,5574
1044,1979,4830,2680,-631,-3770,-10393,-810,2887
1044,3040,4814,2463,-695,-3716,-9818,-458,1356
1044,587,-242,-51,-3681,8369,9594,312,5493
1044,74,184,71,-3123,7410,7840,204,5345
1044,-1221,1056,369,-2299,5357,4281,178,4895
1044,-418,760,-221,-3346,7218,6585,83,6952
1044,-464,966,-9,-2628,6351,4732,62,5724
1044,-530,-802,-951,-6349,9578,12742,493,5986
1044,6,-1482,-1283,-6169,10645,16356,861,6567
1044,37,404,516,-3072,6894,5590,-88,8302
1093,-143,2037,1414,-2748,3584,449,-219,3923
1093,-11,337,247,-3463,6951,7191,177,4053
1093,-545,4349,2638,-1365,-1539,-8872,-1019,6549
1093,1212,3901,2430,-1095,-1149,-8230,-979,6187
1093,997,4144,2741,-452,-1958,-10189,-1206,5881
1093,819,-2,-258,-3710,7610,7509,495,5885
1093,631,427,69,-3200,6304,5371,286,5710
1093,-199,589,49,-3557,6278,6820,308,6332
1093,1849,758,95,-3723,5578,5793,235,6075
1093,4897,-307,-333,-5074,6700,10668,883,3261
1142,-222,4247,2445,-2350,-2416,-7017,-558,7818
1142,-322,489,376,-4569,4601,7605,336,7868
1142,-3581,-45,458,-4647,3216,5426,334,7050
1142,-2940,26,419,-3950,2890,4621,331,6486
1142,-1084,521,751,-3005,1816,2339,96,6102
1142,2438,4075,2534,-3804,-6208,-7515,-596,7877
1142,3583,3557,2055,-4050,-5214,-5469,-295,7323
1142,-1184,-484,411,-5710,3100,9487,486,7445
1142,-2583,-184,358,-4818,2517,7825,366,6678
1142,352,172,740,-5598,1394,7375,643,6408
1191,-1842,4905,4646,-850,-9030,-15498,-1423,7631
1191,-2456,3366,3553,-1760,-5955,-8828,-1016,6985
1191,-1011,-2147,114,-7780,5321,15733,-560,7826
1191,-3153,-1934,299,-7125,4696,13993,-241,10852
1191,-3656,-1230,902,-5911,2958,8711,-693,11098
1191,1810,-253,1097,-6287,1457,9355,667,4948
1191,3140,6,1156,-5263,939,7850,327,5898
1191,-4190,2839,3477,-5514,-6519,-6096,-575,6995
1191,-3842,2470,3240,-5383,-5508,-6022,-608,6365
1191,3499,-347,1003,-6759,1377,8017,966,1326
1239,248,3761,3969,-3257,-7271,-11316,-1474,9693
1239,-1232,1109,2384,-4593,-2244,-341,-652,8778
1239,-4367,-639,981,-6241,1506,7780,584,6522
1239,-4986,-731,1345,-6062,1317,6457,165,5917
1239,-3603,12,1998,-5330,-354,2254,-362,5434
1239,-1311,-2585,584,-7039,4845,14385,411,8433
1239,-458,-1773,603,-6776,3385,12160,323,6706
1239,-2605,-840,1634,-7126,803,6142,-43,5946
1239,-3404,-160,1769,-6349,-315,3421,-390,7031
1239,-1165,3621,3969,-4915,-6557,-8244,-748,6021
1287,-4642,2651,4141,-5042,-6281,-6980,-1186,8648
1287,-3904,-1660,1495,-7260,2302,10196,131,7526
1287,709,-721,2116,-6417,2205,6124,3596,5993
1287,171,-714,2073,-6359,1414,4900,4054,5058
1287,738,60,2276,-5542,-453,1339,2567,5203
1287,-2498,106,1984,-8390,310,6741,77,4902
1287,-1772,196,2086,-7839,46,5182,-237,2263
1287,-3147,-965,1466,-9810,2422,12832,-95,7404
1287,-4273,-866,1659,-9053,2237,9872,-748,6597
1287,-691,-295,2808,-6908,508,8025,6216,7698
1336,2639,2533,4262,-5397,-4955,-4886,-8778,5774
1336,573,-761,2488,-6533,1254,6043,-7103,5879
1336,-22,4308,6100,-3733,-9529,-15288,-1469,8071
1336,-845,6701,6940,-2231,-13935,-24199,-1916,7587
1336,449,6373,6316,-2150,-13101,-22248,-1937,7228
1336,7758,-986,1430,-7925,2905,10523,1479,4946
1336,5634,-470,1344,-7174,2017,8925,1484,5912
1336,-313,-765,2247,-8837,2021,7238,222,7477
1336,-4727,-1394,2399,-7588,1926,7016,-381,9976
1336,1523,-2064,2238,-9755,3103,11929,7052,7438
1385,-8306,2250,5126,-4159,-5926,-8626,-1838,9447
1385,-6969,-1448,2886,-6752,959,6643,-259,6861
1385,-858,-1322,3070,-8279,2786,11030,4483,6490
1385,-2066,-1262,2841,-7398,2754,10349,3777,6376
1385,-1425,-609,2841,-6444,1515,8004,3031,6052
1385,-3499,3878,6505,-6131,-9687,-13626,-2495,6498
1385,-1847,3885,6241,-5549,-9069,-13175,-2200,5140
1385,-35,-1418,2814,-11345,3159,12704,8720,3539
1385,2087,-968,2793,-10552,2445,9885,5630,3711
1385,1834,-1418,3515,-8740,2600,8547,-7345,8521
1432,5121,3194,5057,-7405,-5344,-5348,-961,6612
1432,3886,5497,6195,-5474,-9702,-15029,-530,7341
1432,-207,-2642,2788,-10544,4749,13643,95,6106
1432,-4015,-2567,2956,-9185,4196,11507,-333,7133
1432,-3235,-2334,4567,-10403,2260,9288,-505,8443
1432,-4019,-2070,4284,-9392,2278,7822,294,4978
1432,-2685,-1286,4146,-8615,1135,5214,2037,3942
1432,-2065,1333,6244,-8047,-4215,-5766,-13805,13053
1432,-2557,1620,6309,-7522,-4562,-6832,-17936,13209
1432,-2039,-2472,5114,-8707,2562,9922,1487,4612
1481,3696,-376,4632,-8674,369,6786,7077,966
1481,1064,-1332,4219,-7938,2014,10902,6586,3551
1481,446,2042,8431,-4448,-5321,-8245,-2051,5900
1481,2547,3502,8235,-3894,-7249,-11702,-2327,5601
1481,-6337,-3252,5078,-11519,4865,15870,3813,9200
1481,-3526,-2692,4965,-10089,4610,14196,3967,8331
1481,-2348,-1932,4822,-9109,3499,11406,1879,7977
1481,-2581,-1999,5639,-7911,2226,586,-13480,6068
1481,892,-1428,5238,-6993,2199,1069,-8497,3727
1481,665,714,8152,-8890,-3776,-403,2659,11892
1529,324,-867,5633,-10131,-199,6998,-276,-6037
1529,2455,2523,7089,-7422,-6322,-6063,-604,-2387
1529,-1138,-2165,5866,-11447,1901,9844,-3710,19697
1529,-5615,-1863,6065,-10219,1189,7757,-5356,15670
1529,3798,-1312,6184,-8940,1813,7367,1473,568
1529,5359,361,6317,-7338,-413,2436,1255,48
1529,3556,4971,8704,-3617,-8732,-16381,174,2816
1529,2378,-2549,5228,-10494,4200,18645,4333,3679
1529,-4714,-3230,5594,-9052,4068,15915,2289,7529
1529,-3146,-3293,7151,-10817,1712,9420,-1104,14540
1578,-8510,2909,10379,-7115,-9345,-7492,14276,6433
1578,-5703,1321,9071,-8052,-6367,5424,13439,6537
1578,2189,-854,7563,-10032,-371,3121,644,1796
1578,4143,-5520,3422,-13189,8000,23269,2986,-263
1578,1388,-4303,8487,-10031,4024,10161,-2939,1972
1578,-193,-4055,8424,-9200,3847,9766,-2867,-1928
1578,2617,-2510,7964,-9400,1380,7301,-1555,-5603
1578,3078,-248,8607,-8566,-1962,-1085,-4930,19068
1578,9827,4028,10305,-5771,-8796,-12715,-3947,9020
1578,11856,-2226,7339,-12935,1908,14456,-1030,3001
1626,-19387,-2425,11657,-6449,-4383,-943,-825,10399
1626,-16363,-2783,10586,-9310,-2515,4913,5072,6813
1626,5466,-4197,8887,-8972,2412,7182,10921,352
1626,521,-4395,8842,-8275,2298,5167,8314,5369
1626,3304,-4097,8612,-14930,6313,25616,-527,11843
1626,1370,-4571,7540,-14913,4929,21387,-2055,12771
1626,1658,-3405,11000,-9268,2149,3489,-2495,4840
1626,6325,-3187,10858,-10492,1443,8031,-1106,4299
1626,-6269,-3144,12077,-12672,967,12095,-11445,2913
1626,-5236,-2516,11485,-11995,557,11482,-10248,1040
1683,-5609,1575,14635,-8021,-10334,-8982,-5962,12998
1683,-5399,-5383,12127,-13087,4090,12059,-6187,8908
1683,-4011,-4794,11540,-11630,3335,8980,-11165,9867
1683,3526,-2167,12961,-13824,410,13535,-2672,4651
1683,-1993,-3503,13415,-10895,1983,7010,-3636,7803
1683,-760,-3708,13806,-7555,2052,-2366,-3342,8103
1683,9501,1187,16320,-11047,-6229,4389,5113,4618
1683,2222,-2693,14265,-13358,654,14919,4541,9326
1683,-2431,-4739,16735,-11633,1916,11926,4975,3994
1683,172,-3560,15661,-11461,782,12157,952,4804
1732,-5434,3386,20818,-7603,-11176,-16568,8333,-1818
1732,-10064,322,20116,-6934,-7158,-11334,2795,8052
1732,-11464,-933,19837,-5817,-5378,-11611,-300,15026
1732,7935,-2246,15952,-12787,2944,18487,-5503,4186
1732,4194,-1751,15187,-11698,2357,20505,-962,1655
1732,12907,-1327,17850,-12681,1344,8515,7904,-4707
1732,7015,-2555,17882,-11086,2370,7557,5089,647
1732,-4022,-2876,17717,-9618,1696,4760,2171,5026
1732,-3394,963,19362,-10458,-4722,761,7548,-6653
1732,-9629,-4835,17632,-9428,4726,8914,6137,-2549
1781,-3069,1182,22000,-8543,-5515,-11820,-753,3821
1781,1127,-1824,18267,-10259,1430,3466,1243,-223
1781,3492,2775,20079,-6101,-7034,-16091,1752,-2591
1781,2949,2809,21149,-8188,-7636,-7916,-1775,7012
1781,5291,1827,19997,-8036,-5810,-6075,7801,3140
1781,4890,-3522,18183,-9332,3639,7644,3045,1339
1781,6855,-2641,16717,-8423,3371,12191,6197,1704
1781,9880,-1512,15897,-7702,2240,13337,7672,1575
1781,8594,-1695,18034,-8314,2421,10310,14962,2431
1781,7901,-1105,16515,-8888,516,8983,14444,4536
1830,8577,4724,20481,-5051,-5690,-8476,1279,-5752
1830,7492,1350,18128,-6954,-183,4140,5677,-5674
1830,7472,-730,16474,-9214,2665,8612,4957,-2888
1830,-3507,-1582,17997,-8377,1952,12877,5370,1833
1830,-3641,-1504,17331,-7511,1545,7833,2742,2655
1830,-25,3859,21230,-5239,-6764,-10134,1830,8449
1830,-2372,2610,19457,-6425,-6481,-6016,146,11767
1830,-6938,1637,18871,-6251,-7170,-6011,-2620,12906
1830,-13136,-4088,17572,-6897,6257,13041,4894,8010
1830,-7673,-2636,15991,-7614,4746,15526,10331,2567
1879,-4328,4519,21401,-3278,-7776,-14099,-4528,1473
1879,-5602,3217,19507,-3982,-5377,-7939,-2362,3046
1879,-5225,2659,17961,-4229,-4204,-5200,651,1766
1879,189,-4475,14767,-8811,8769,11307,-1774,-994
1879,4010,-3289,14178,-7751,7215,8907,1157,-2112
1879,8920,842,14289,-6352,4414,8366,4959,-6251
1879,7701,863,13343,-5870,3919,7852,5138,-4146
1879,6270,880,12783,-5276,2417,6145,4925,823
1879,-833,2989,17220,-3111,-5536,-9815,3568,1353
1879,-118,2948,15797,-2964,-4776,-8036,3949,-1662
1928,4615,874,13908,-7591,1550,11747,13333,-6427
1928,-5130,-765,13099,-6954,3433,16985,11044,-346
1928,-8927,3014,14931,-2573,-4080,-6298,5040,5870
1928,-2459,-864,13022,-7660,2484,8407,899,1407
1928,448,8,11796,-7817,1322,8445,3115,-562
1928,7635,-652,11228,-6400,6017,17386,11056,3775
1928,8981,-479,10535,-6169,4343,16195,14156,5933
1928,7064,-476,10392,-5334,2630,12311,11520,6916
1928,-6743,-1868,12365,-4479,3069,2036,-894,531
1928,-4785,-747,10694,-5552,1016,-41,391,1358
1975,-8150,3107,15309,-2017,-6076,-15934,-200,1670
1975,-7947,2075,12915,-2951,-3761,-8805,326,1378
1975,-3710,5211,13364,-310,-9311,-19912,117,-329
1975,-12346,-3545,11077,-4876,4861,7212,3258,6752
1975,-7716,-2665,10545,-4544,3784,6335,1146,8381
1975,17617,1550,8618,-6732,2050,22495,4316,-4305
1975,18259,1305,8256,-5986,1793,12367,-713,-2576
1975,-3996,-4220,8285,-6632,8141,18306,-524,1912
1975,-5886,-4449,8144,-6255,7727,16533,2165,2398
1975,-4571,-2676,8425,-5838,4169,8213,4484,2343
2024,-15679,2054,12261,-597,-5232,-18791,-931,3505
2024,-13525,-1847,9786,-3133,2101,-2052,-1671,4987
2024,-2165,2164,10810,108,-3449,-8099,2604,867
2024,-3158,1449,10499,-1394,-2922,-4082,11170,-4066
2024,-2546,6020,11629,187,-10674,-15433,7383,-2827
2024,-8012,-2785,7514,-4507,4297,6242,616,3774
2024,-6908,-2932,7655,-3895,4309,5269,-412,5671
2024,6347,-136,6570,-4595,2543,2619,682,-5074
2024,7282,-387,6400,-3823,2644,3952,4216,-6064
2024,6870,-141,6372,-2673,2276,3215,7114,-5727
2073,-3597,405,7966,427,149,-12563,-1781,5757
2073,-3066,-1807,5957,-1273,4281,111,1777,5177
2073,-2744,1050,6786,-562,-498,-5353,3881,3589
2073,5291,26,4974,-3398,2358,1524,-447,-5422
2073,5186,875,4958,-2353,1682,-66,34,-7992
2073,-5514,2645,7567,352,-4057,-9640,620,6336
2073,-8764,6866,9368,2959,-13019,-27782,-794,6303
2073,-11193,7431,10012,3058,-15571,-31931,-2384,6866
2073,3064,-1380,3949,-2972,5734,10103,-4086,-4609
2073,3626,-1007,3881,-2564,5387,8368,-4881,-3736
2122,4529,4322,8309,1879,-6091,-21866,1191,1163
2122,6398,4155,7183,611,-4755,-18532,1929,-333
2122,9420,4173,5633,-340,-3381,-14612,2166,-3274
2122,-3047,-3295,3037,-4115,7166,16717,-13747,2721
2122,-4071,-3079,2889,-4051,5850,17206,-8090,2356
2122,10438,891,1719,-2559,3936,9115,5023,-7892
2122,11217,738,1762,-2949,3699,8985,5010,-7750
2122,2820,-217,2573,-3132,3177,7622,3423,-2893
2122,-2661,-1056,4080,-848,3808,3122,482,-690
2122,-3148,-2392,2174,-3424,4888,11028,418,-1303
2171,1656,771,3044,-2196,156,-3064,1309,-4790
2171,3651,-160,1580,-2849,3699,5054,1667,-5429
2171,642,2905,3442,154,-2207,-6360,-1233,-2177
2171,-7414,3403,6056,2464,-5774,-22722,2670,2476
2171,-11177,853,5632,350,-3624,-14312,898,5396
2171,-2760,-3517,2342,-2883,6962,14742,-679,3539
2171,-5695,-3241,2408,-2775,6465,13727,-876,1169
2171,-6481,-2481,2660,-2145,4870,11809,-2692,-1220
2171,-7777,-2678,2519,-1883,3907,10701,1633,1629
2171,-6043,-2619,2749,-2491,3037,11595,3110,4773
2219,3445,2291,4357,433,-3185,-11103,766,-1764
2219,2606,707,3373,-608,-666,-4647,594,-3372
2219,-1675,-1510,1751,-2090,2783,4257,1081,-4993
2219,-2268,-1967,2201,-1121,3922,3704,835,894
2219,-5125,-1781,2146,-1766,3368,3435,548,2062
2219,1875,2665,5190,2789,-1939,-11176,2546,-1622
2219,3120,3883,5755,3081,-5255,-17139,3421,-1144
2219,-3834,-3374,1498,-2770,5014,8286,1629,2901
2219,-5255,-2699,1481,-2521,4368,7693,2029,3386
2219,-2400,-2001,1004,-2857,3945,15375,1436,2234
2269,7763,4108,3298,431,-6514,-10587,8485,-1073
2269,7870,4160,3384,1868,-5826,-17213,7193,-1803
2269,6980,3324,2446,1792,-3775,-19494,3919,-2332
2269,-2935,-5964,-1564,-4002,11306,15382,1012,389
2269,223,-3757,-1089,-2569,8286,11888,5508,-2954
2269,-5676,-1986,745,-1819,4043,4610,-1138,1071
2269,-4171,-1894,964,-1680,3408,3626,-1087,1769
2269,-2471,3700,2854,834,-7060,-22848,-7105,-43
2269,-3679,3029,2003,-25,-4952,-14027,-4467,3416
2269,-6729,2920,2206,10,-4757,-9764,-2123,5991
2318,-3517,102,1847,-627,628,-2344,-2790,976
2318,-2782,-1839,-288,-2475,4865,9361,-2461,-402
2318,-4041,-91,972,-987,479,534,-1553,-1502
2318,11473,-91,-893,-4220,2469,8994,685,-3321
2318,5623,645,-769,-3800,1216,10022,-61,-1619
2318,2538,-1922,-2377,-5296,5227,15678,876,1252
2318,-274,-1911,-1890,-4386,4530,14867,-215,448
2318,-4937,-2199,493,-357,3742,-1248,-1694,1242
2318,-2429,-1892,479,277,3801,-5976,-4587,-105
2318,-401,-822,557,747,2588,-10599,-2865,-2115
2365,-6517,2604,4083,2819,-5844,-16956,-306,5906
2365,-5120,1413,3770,2951,-3097,-13162,-769,7253
2365,-1233,-1530,-279,-1831,3839,5759,-1607,-2234
2365,-872,-1392,-318,-1550,3919,6091,-678,-3715
2365,820,-957,-148,-663,3565,4201,-6,-2891
2365,-2421,-512,-690,-704,2244,966,2763,4159
2365,-1257,-346,-669,-1163,1910,3813,6264,519
2365,1297,-1116,-600,-2687,2897,14589,14645,8502
2365,2786,-3484,-2165,-3860,7988,23974,16643,3416
2365,4998,-28,-1143,-1406,1401,5612,-775,-3374
2414,930,1643,1456,1987,-2735,-10836,-3185,-4483
2414,5128,-969,-133,445,3091,1126,-1771,-2857
2414,5022,2935,1418,1670,-3994,-10006,-3724,-6701
2414,2178,2447,1216,730,-3326,-8522,-6828,-6249
2414,905,4144,2348,1947,-6616,-16519,-8102,-3421
2414,-324,-1965,-753,-600,3602,7264,2235,-2168
2414,-717,-1828,-708,-1223,2840,5779,-2660,-471
2414,-201,-1071,-854,-343,2969,8209,-7371,4664
2414,826,-852,-395,-370,2197,8754,-4073,3849
2414,6285,-940,-1139,-2059,3384,4069,-3298,-752
2463,-5978,-1708,77,-1041,3383,1374,-475,-37
2463,-7601,-1610,-247,-798,3229,2034,-245,1720
2463,-7220,2594,2507,2893,-5115,-16247,-1670,3091
2463,514,-530,-579,-51,2392,-2612,-2426,1273
2463,738,-255,-405,-577,1669,623,-5449,1966
2463,-5418,1647,1397,2951,-2663,-11873,-62,-2525
2463,-8361,3584,3649,4036,-8477,-23032,-2132,362
2463,-4396,-1895,-1149,-1673,4150,4425,2002,616
2463,-1884,-1620,-621,-958,3624,2450,1582,-641
2463,1515,-709,-54,-171,2204,-1258,404,-3129
2512,-2913,3063,2596,2805,-5703,-14592,-1372,-799
2512,-184,3575,2805,3010,-6931,-21434,-4347,-1470
2512,-2022,2169,2237,2809,-4366,-23037,-6050,-891
2512,2179,-2446,-1794,-1810,5784,7893,1035,-3653
2512,3536,-2244,-1648,-1338,5350,6866,1087,-2676
2512,4492,-361,-1938,-2193,2989,5628,-3726,-5340
2512,7830,475,-1958,-2386,1873,5004,-2640,-5380
2512,3562,2016,716,1776,-2659,-9551,-563,180
2512,7399,6142,2565,2422,-10063,-23275,-810,-1432
2512,9136,6539,2954,2285,-10129,-23124,-423,-5020
2561,1882,1196,406,370,-1107,-2207,-5868,3349
2561,4228,-1543,-1898,-1693,5059,10437,318,-2213
2561,7054,368,-1829,-622,2743,1816,2561,-7172
2561,-4298,1397,1935,2802,-4128,-15132,-2387,-159
2561,-3378,1135,1880,3265,-2932,-13533,-2559,336
2561,-2618,-3333,-1902,-2750,6623,11559,1555,-201
2561,-273,-2854,-1709,-2534,5981,10793,2313,-1328
2561,7916,-620,-1903,-459,4215,963,-2232,-1983
2561,9865,496,-2404,-571,4165,2674,-1182,-5889
2561,4805,943,-1971,-490,3578,2880,-975,-3882
2610,1631,-2303,-802,-1043,4276,5024,-343,-1957
2610,1825,-2664,-1329,-1336,5742,9118,397,-1627
2610,2975,1774,1155,1848,-1965,-7501,-411,-2611
2610,-3062,-3130,-204,-1265,4553,10925,1108,3109
2610,-1686,-2197,-492,-515,4103,6185,1160,5060
2610,-7276,2339,1813,1660,-5371,-7805,4345,2367
2610,-5626,2066,1663,1926,-4141,-7111,12896,542
2610,2963,-1302,-2876,-3257,4776,13407,-3173,-2150
2610,2531,-664,-2914,-2486,4209,8230,-5544,-1903
2610,1509,61,-2052,-353,3047,-2661,-8402,-2658
2659,1216,4805,2148,3218,-7975,-18897,250,-332
2659,-2787,3149,1602,1991,-5349,-12906,844,-1563
2659,-4155,2304,1384,1590,-4154,-11160,115,-75
2659,239,-4687,-3325,-2409,7454,15235,-1356,1292
2659,27,-3658,-2803,-878,6151,10721,1936,-1326
2659,-2281,-1945,-1430,-1536,4297,10028,3315,-888
2659,-1410,-1551,-1734,-1851,3665,8045,2329,-1941
2659,-2094,-976,-1670,-1728,1955,3183,486,-1131
2659,-5857,2148,1381,2164,-4192,-4873,-525,3176
2659,-5319,2289,835,1965,-3899,-7340,-1141,4534
2708,-2698,-2308,-1286,-555,3710,5479,-12035,4894
2708,-2321,-2475,-1169,-936,3805,6812,-8380,2092
2708,-6155,1317,1870,2681,-4133,-12080,-8025,2241
2708,-5299,-1745,-1635,-1357,3325,5890,-634,389
2708,-5458,-1606,-1493,-1189,3076,5004,355,801
2708,-3494,-4464,-1441,-1313,8894,10284,-5078,1395
2708,-3281,-4286,-901,-621,8339,9043,-5894,4514
2708,-4200,-3585,-610,434,6487,7256,-4893,5890
2708,-3264,-1939,-1566,86,2713,2612,1135,-1268
2708,-2084,-1419,-1431,423,1920,1431,-385,-216
2756,-6424,1950,922,2482,-3570,-12898,-610,2338
2756,-5321,2044,1004,1966,-4262,-12732,372,2590
2756,-2211,-2299,-1348,-1692,2932,4875,1546,1897
2756,6234,-842,-1547,-624,2411,751,-672,-733
2756,8895,70,-1399,-426,1488,-1846,-656,-1183
2756,131,-966,-616,709,3869,1323,7660,-5748
2756,-1731,-1164,-595,203,2702,2062,3237,-2883
2756,-4562,-616,-143,-642,-385,53,352,-1170
2756,-9450,-4230,-1826,-12,7339,9533,204,537
2756,-9113,-2947,-1713,282,5595,5233,-615,2289
2805,-1500,-376,-57,-150,-542,-3054,797,-1816
2805,1113,-2029,-855,-1252,2485,9406,2578,-1909
2805,2073,1225,1045,1269,-3376,-2890,2374,-53
2805,2130,7591,3940,4757,-14583,-29878,-7866,558
2805,-1630,5782,2494,3076,-10894,-20754,-7460,1601
2805,2998,-1792,-1649,-31,4633,5136,1159,67
2805,2809,-1722,-1520,87,4279,4635,968,57
2805,1842,-1094,-1366,940,2542,1743,671,-215
2805,3699,441,-2064,-87,2319,3914,1487,-2013
2805,3985,1017,-2129,-298,1646,3493,1482,-2617
2855,245,2328,548,1940,-3302,-11344,-2825,-2082
2855,2464,-894,-1529,-875,2642,4119,-229,-4297
2855,5296,192,-1340,-474,1345,2294,1750,-5128
2855,-419,-882,-1758,-119,2847,3388,1431,-2130
2855,-3389,-393,-1524,-406,1394,1545,885,-2411
2855,-1730,7697,3140,4858,-13624,-29937,-1965,-403
2855,-889,4608,1320,2576,-7929,-17352,-1863,-1603
2855,-935,-2305,-2429,-1476,4732,9456,6447,-5046
2855,-312,-1793,-2192,-318,4037,7597,507,-2550
2855,-1280,-1083,-1517,1167,2731,2878,-7588,-597
2903,-8032,2954,1189,3152,-6849,-17457,-2196,2453
2903,-7596,1488,168,1827,-4182,-10703,-1649,3742
2903,-3230,1928,340,1853,-4464,-10957,-1236,2990
2903,-5386,-4322,-1935,23,6564,8319,-308,-1010
2903,-471,-2671,-2034,-429,4652,8895,-1139,-2654
2903,1127,-1598,-2624,-146,3903,5309,-2462,-2368
2903,3174,-1351,-2595,-495,3056,4912,-1104,-2770
2903,1376,-2714,-3514,-1791,6220,11448,795,-808
2903,1574,-1766,-2609,-209,5117,7471,1064,-1095
2903,-393,-1138,-1521,896,3613,3302,1311,-1510
2998,-4413,-1856,-2031,188,4170,4584,-325,-64
2998,-4030,-1544,-1961,1120,4084,3505,-370,-484
2998,242,-2016,-2554,-979,2993,7182,4059,-2484
2998,-320,-1709,-2193,-478,2699,4742,3589,-2247
2998,-268,-826,-2224,43,3077,4068,621,-2593
2998,-596,-1300,-1800,17,2875,4249,143,-1500
2998,-515,-1234,-1051,603,2068,2583,-381,-896
2998,-1537,-1655,-2146,594,4083,4624,578,-248
2998,-1984,-717,-1808,831,2899,2095,267,-237
2998,1510,-648,-2123,165,2778,2911,223,-1698
3047,1543,4986,1162,4172,-7287,-20051,-3146,-1066
3047,1611,4845,1241,3646,-7432,-19105,-3122,-955
3047,-4707,4638,2072,4896,-8050,-22654,-3299,688
3047,-2874,151,-702,875,-96,-3434,-1907,-875
3047,3562,-1760,-3219,-1250,4454,7841,962,-533
3047,1994,-1662,-2678,-536,4234,6552,566,-593
3047,-803,-573,-2148,400,2777,2768,142,-1100
3047,-2613,-338,-2292,48,3996,4967,398,-930
3047,-1226,-277,-1784,401,3141,2956,131,-465
3047,6182,-60,-2929,975,4585,5272,871,-1499
3096,-3887,1453,-571,1826,-695,-5712,-778,-688
3096,-3140,-1125,-2460,199,4957,6484,-682,-1504
3096,1570,-399,-2925,1287,3194,3669,79,-2128
3096,1115,-2,-2560,1745,2693,1929,-135,-1903
3096,1126,849,-1986,2004,1160,-993,-265,-1799
3096,-698,-4157,-3933,-1386,7538,14429,155,-1785
3096,1668,-2634,-3203,-736,5091,9138,-55,-1872
3096,-800,-970,-2259,644,2113,2500,238,-1992
3096,524,-630,-2018,462,1594,1871,332,-1847
3096,-667,-383,-2242,1099,1944,1724,260,-2136
3144,512,4044,202,3865,-5657,-14393,-786,-2075
3144,277,3365,-264,3304,-4152,-11301,-587,-1995
3144,7344,-388,-3227,568,3965,5959,1305,-6966
3144,5318,0,-3130,424,3221,5274,1346,-5958
3144,-2105,-704,-2269,944,2835,2440,127,-752
3144,-585,-634,-2146,910,2579,2322,194,-927
3144,-1583,-291,-1860,1126,1828,984,159,-996
3144,658,-1163,-3122,217,3970,5916,617,-1445
3144,422,-642,-2431,924,2846,2973,196,-42
3144,-752,334,-2577,1139,1613,1055,253,-1179
3193,-518,171,-2026,1320,561,-356,-110,-1409
3193,-439,-366,-2084,281,1866,1664,135,-1361
3193,-592,3884,-605,3671,-4982,-13055,-1067,-1242
3193,349,3824,-530,3325,-4681,-12484,-897,-1632
3193,2318,4055,-256,3404,-5260,-13393,-850,-1743
3193,-212,-2588,-2835,174,4761,6196,733,-1588
3193,-1574,-2243,-2680,508,4173,5141,650,-1480
3193,315,-90,-3116,294,1882,2876,494,-1473
3193,-683,183,-2624,1086,1656,1035,342,-1497
3193,1025,-955,-3872,1391,3996,6134,595,-1658
3242,335,4298,-880,5090,-5135,-14590,-742,-1243
3242,-1482,2121,-2005,3097,-1407,-5156,-340,-1549
3242,842,404,-3690,2067,2274,2570,418,-1790
3242,-457,426,-3115,2155,2251,1739,272,-1581
3242,840,1267,-2440,2763,908,-1739,93,-1316
3242,2033,3837,-1624,4889,-3965,-11971,-813,-1377
3242,1454,3116,-1636,4646,-3510,-10940,-919,-1144
3242,552,-318,-4814,3162,3077,4442,550,-2510
3242,1545,-43,-4016,1339,1769,3101,560,-1840
3242,1409,1580,-5377,2657,2384,3090,375,-2735
3291,-1743,5775,-739,7232,-7566,-22197,-2242,-72
3291,-1302,4604,-1199,5820,-5593,-16538,-1739,-531
3291,1725,-1123,-6718,2068,6196,10235,1076,-2731
3291,1678,-766,-6204,2181,4974,7876,446,-1430
3291,77,1,-5399,2419,2886,3835,-114,-92
3291,-2162,38,-5458,3263,3462,3025,-49,-1858
3291,-1906,-151,-4998,3407,2587,1748,-139,-1947
3291,-1590,3330,-3497,5855,-3162,-10862,-1430,-1243
3291,474,3285,-3616,5515,-2794,-9560,-1220,-1329
3291,1103,-250,-6313,3731,3418,3577,15,-2759
3340,1383,4236,-3440,6967,-5543,-15568,-1222,-2098
3340,1070,1201,-4933,4397,-427,-2669,-424,-2442
3340,1454,-219,-6506,4285,4121,3710,191,-3047
3340,0,-17,-5964,3844,3924,2984,113,-2824
3340,-145,1543,-4711,4695,639,-3948,-413,-2355
3340,220,-1258,-7781,3575,5619,8171,551,-3021
3340,427,-286,-7369,3673,3889,5657,464,-2971
3340,1165,-835,-6490,5019,2523,2810,-18,-2591
3340,-391,-334,-6076,4816,2391,2163,-143,-2193
3340,-671,3049,-3427,7519,-2238,-10763,-1570,-2426
3389,-501,2385,-5075,6767,-2936,-6464,-1079,-2765
3389,-334,-689,-7390,4247,1524,6077,-194,-2840
3389,-284,555,-6364,5130,-519,-195,-495,-2337
3389,1511,795,-6897,4771,3148,3450,-70,-3082
3389,-141,763,-6015,4468,2437,2362,15,-2875
3389,1184,2210,-7175,7170,-703,-7911,-862,-2383
3389,719,5589,-4903,8906,-8142,-21030,-1821,-1783
3389,700,-1594,-7476,3743,4443,7622,435,-2829
3389,378,-1760,-6870,4289,4265,6241,162,-2412
3389,-1392,-1073,-6052,4834,2583,2289,-313,-2019
3438,3468,5498,-3610,8617,-6508,-18383,-1835,-2220
3438,2289,3928,-4317,7162,-3639,-11907,-1513,-2319
3438,2930,4063,-3937,7282,-4097,-12931,-1590,-2356
3438,769,-1232,-7755,3538,5639,9585,-40,-2662
3438,-912,-3386,-8679,2289,9436,17291,667,-2564
3438,-1779,153,-7377,5278,4706,5240,-112,-2044
3438,-1459,368,-7011,5296,4243,4351,-117,-1981
3438,77,3441,-5284,8642,-2834,-11622,-1202,-2344
3438,1350,5269,-3929,9140,-6938,-18936,-1920,-1896
3438,1414,-644,-8218,4812,2203,6181,-88,-2911
3486,2121,2032,-6418,6607,5381,-798,-386,-3296
3486,698,5444,-5008,8235,-1178,-13500,-1370,-2815
3486,250,-468,-2189,5601,10624,4775,-162,-3196
3486,175,253,-4230,5674,7918,3392,-155,-3136
3486,-245,4635,-4197,9667,-9897,-23642,-2626,-2630
3486,-182,1323,-5612,6767,-3869,-9625,-1694,-3033
3486,-97,-5141,-8704,2489,7803,15100,191,-3437
3486,175,-1180,-10727,3990,738,5296,22,-3500
3486,679,-921,-9080,3911,1612,4736,7,-3343
3486,1867,-626,-6163,6712,5695,2085,-458,-3355
3534,674,3193,-3420,7399,-4362,-13495,-1599,-2510
3534,1940,3235,-4008,6786,-3800,-12039,-1519,-2436
3534,2865,-2975,-6730,5218,5820,7135,53,-3585
3534,1374,-2114,-6881,4721,4913,6386,124,-3691
3534,2911,-508,-9194,5696,5574,3400,-140,-3482
3534,1285,205,-11334,5410,2815,2304,-33,-3567
3534,1791,-2746,-8745,4451,3768,8667,-346,-3075
3534,654,-2117,-8556,4759,2630,6273,-561,-2855
3534,2271,-849,-8370,5359,890,2156,-809,-2719
3534,3689,762,-8572,5990,1213,1278,-382,-3569
3583,-1473,763,-5093,7241,1534,-5869,-1005,-2757
3583,-228,-1454,-6055,5380,6574,3964,-17,-3060
3583,2659,4634,-3263,8762,-4669,-14077,-1847,-2594
3583,2437,3934,-3021,8216,-4081,-13172,-1787,-2380
3583,490,-2447,-10210,5115,-5333,3816,-185,-3609
3583,2126,-1424,-9711,4977,-5837,2340,-293,-3343
3583,2560,-298,-8935,5404,-6114,-1342,-687,-2844
3583,1270,-1546,-2181,7050,10061,1043,-375,-3559
3583,2305,-1160,-2244,6842,8284,-335,-522,-3265
3583,2473,2974,-5195,9439,-7905,-19782,-2332,-2469
3631,1644,-1101,-12870,6383,-6802,-7228,-1463,-2706
3631,-79,-1643,-11481,5495,-6794,-5321,-1373,-2604
3631,1794,-3207,593,6678,9460,3028,-794,-3184
3631,-5,-3003,-78,6141,7356,2193,-792,-2973
3631,1600,2939,-5170,8599,-3336,-15611,-2069,-2993
3631,1640,1949,-4685,7944,-2517,-13030,-1973,-2789
3631,1829,-2521,-8730,5090,4197,6113,-132,-3986
3631,179,-2244,-7136,5265,4982,4716,-225,-3810
3631,1085,-1393,-5725,5697,5127,793,-546,-3428
3631,154,-2638,-7830,5103,3336,2371,-517,-3559
3679,-1052,-755,-5790,8303,-2456,-13581,-1709,-2981
3679,935,2389,-3227,9341,-6216,-22313,-2366,-2681
3679,-723,-6621,-2007,3384,12400,13782,380,-4096
3679,1067,-6319,-1355,4035,12418,9953,259,-3706
3679,2807,-1090,-7506,5983,6101,2839,-351,-3856
3679,2892,-823,-6074,5840,5678,2197,-366,-3534
3679,2447,5561,-642,9067,-2978,-20699,-2193,-3131
3679,434,4941,-2458,7941,-4096,-15539,-2037,-2833
3679,134,5389,-2882,7993,-5320,-16711,-2168,-2550
3679,-8,-5601,-5883,5364,1504,4069,-697,-3755
3728,528,2630,7377,8178,3516,-11645,-1699,-3358
3728,922,-1187,1662,6100,10833,2920,-527,-4727
3728,1338,-2614,-6041,6085,4627,2353,-788,-3740
3728,-514,-1975,-6131,5837,2828,750,-924,-3287
3728,1471,-2956,-2144,4484,2529,7488,-770,-4254
3728,-116,-3096,-3379,4457,365,5470,-832,-3858
3728,1362,-3174,1341,7135,8461,260,-1269,-4013
3728,1207,-1711,667,6568,7479,74,-1140,-3922
3728,-69,-1321,-262,6161,5617,-931,-1059,-3811
3728,1927,5358,1225,9439,-826,-21518,-2962,-3144
3775,74,7046,-1588,9882,2813,-19428,-3246,-2769
3775,-1073,-4274,4240,5559,6342,2309,-899,-4479
3775,-336,-3396,2570,5317,7343,1563,-978,-4248
3775,1348,-1716,-2074,5485,5134,-1934,-1128,-3980
3775,1455,-1663,-13162,5605,-1574,877,-1246,-4392
3775,1265,-588,-10066,5508,-2366,-431,-1311,-4005
3775,-225,4950,5568,11796,-5432,-28666,-3902,-3273
3775,333,826,914,7903,2420,-7410,-2428,-3896
3775,-27,-2951,-4755,7243,7715,2359,-998,-4802
3775,99,-2957,-8574,6702,5164,2053,-681,-4665
3824,189,-147,-892,9233,-5064,-15282,-2601,-3067
3824,862,2264,-5088,8651,-8296,-12543,-2118,-5219
3824,1487,1687,-8638,8290,-7967,-11196,-2094,-5202
3824,3308,1316,-10485,8059,-7430,-10535,-2059,-5557
3824,-873,-2847,-1603,6782,1128,4871,-1073,-2901
3824,1052,-2606,109,7078,-196,2493,-1369,-2749
3824,1484,-1939,2048,7967,9060,2175,-987,-4278
3824,905,-1832,2482,7770,8034,1228,-1160,-3835
3824,205,-3464,3686,7344,4429,4470,-1080,-4268
3824,-1388,-3494,-2179,7277,-1960,3296,-1252,-3733
3873,246,-1464,6996,7847,299,-3572,-1400,-4385
3873,-7,-3264,5530,6941,8864,3306,-924,-4212
3873,1566,-3633,14988,9307,16786,84,-784,-5144
3873,1802,-2826,12251,8847,12351,-1027,-971,-4506
3873,-517,-50,11124,11103,-2689,-13393,-2373,-4630
3873,-158,1864,13165,12125,-5068,-20960,-2930,-4020
3873,2494,-2766,-5529,7881,-2327,2618,-1031,-5227
3873,351,-3057,-1467,8029,1900,1740,-969,-4873
3873,-75,-2737,2505,8537,3463,-1948,-1258,-4467
3873,-1380,-3840,10808,9715,6044,-1248,-1606,-4961
3922,-122,3118,13488,12672,-2036,-25084,-3118,-4303
3922,169,2310,8523,10107,-8711,-19222,-2588,-4242
3922,-111,-3354,12262,8360,6446,5623,-695,-5941
3922,292,-2739,12438,8136,6397,3623,-804,-5532
3922,-736,-3661,17273,9267,8569,749,-1102,-5972
3922,-254,-3421,18137,9332,9163,93,-1094,-5760
3922,1227,-1465,19905,11748,-2329,-13331,-2326,-5861
3922,822,1784,20286,13688,-5984,-24468,-2983,-5312
3922,-409,4551,25917,14241,-8940,-34338,-3599,-4721
3922,1553,-3194,19467,8120,240,3616,-533,-6350
3971,530,1821,24855,11313,-1039,-15827,-2791,-4798
3971,-1178,-1577,19056,7269,6997,4045,-1044,-5551
3971,-955,-2052,36993,12075,7463,-13023,-2295,-6002
3971,-575,1678,32933,12255,1538,-20281,-2703,-5459
3971,-836,-3900,27380,7091,6032,7029,-463,-7011
3971,604,-2931,26544,6741,5016,5694,-363,-6656
3971,-371,-3650,40179,9158,19642,2334,-757,-7175
3971,232,-3054,37278,9238,15045,1306,-871,-6749
3971,2393,-1654,33605,8945,9390,-65,-737,-6394
3971,372,993,35471,8994,-231,-11944,-2156,-5513
4020,-922,-1319,32074,8286,12602,-4230,-1149,-6305
4020,-833,-4644,30697,6624,16890,5714,-554,-6006
4020,921,-922,33876,7875,13593,783,-1002,-6403
4020,-275,-187,33416,7838,14913,-840,-1006,-6135
4020,-509,-1477,48356,11215,8121,-19556,-2659,-5270
4020,-1754,14,43911,10798,3268,-20143,-2701,-5012
4020,-1512,-1529,29606,6268,7984,4115,-992,-6395
4020,-1391,-380,25826,6360,8148,3072,-1100,-5795
4020,694,902,29036,6652,14508,1544,-991,-5370
4020,-2005,-2531,51362,5280,-1855,657,-1199,-5984
4069,-2144,-2145,53399,12434,3630,-25812,-3678,-4379
4069,-3427,322,47245,10941,914,-21436,-3465,-4180
4069,427,4750,45224,9810,-404,-15737,-2817,-5625
4069,-897,-1713,38197,3936,14316,11820,-843,-6249
4069,965,-911,56792,6395,4951,3825,-443,-6853
4069,585,-1155,55083,6212,4647,3455,-483,-6498
4069,80,-825,53694,6377,3115,1175,-614,-6129
4069,864,4542,62824,8523,-15780,-17899,-1822,-6257
4069,-971,3683,60787,8539,-15144,-17589,-1963,-5823
4069,1389,-1236,61881,5725,-8062,2011,-815,-7036
4118,-1538,-1274,65126,7456,-12396,-4865,-2023,-6169
4118,21,-2976,59253,5696,-6859,2844,-1245,-6199
4118,-898,-1721,74317,6020,-13401,14,-1255,-6761
4118,-975,-1709,69255,6409,-11274,-917,-1349,-6228
4118,-1801,-5321,74797,3341,-14212,10348,-724,-6631
4118,-1731,-3619,68583,2985,-16424,7666,-669,-6374
4118,-1168,-1900,61359,2906,-18653,4286,-817,-6097
4118,121,2091,69819,4581,-29359,-2872,-1524,-6882
4118,2393,3361,62196,4561,-33211,-2889,-1068,-6793
4118,1828,4909,91814,7919,-33833,-20819,-2345,-6508
4175,-471,2536,87940,8391,-36249,-22449,-2895,-5861
4175,-236,38,89339,7564,-33364,-16231,-2648,-5377
4175,-1078,-2930,92071,3679,-15139,359,-1147,-6416
4175,581,-2510,92691,4477,-8891,-1352,-1132,-6123
4175,-26,148,96771,5527,-20830,-1827,-1404,-6533
4175,1351,1226,88983,4978,-19814,-2039,-1215,-6358
4175,-2125,2870,125382,8364,-38120,-24996,-3702,-5295
4175,-1555,-5154,109940,2866,-12246,5374,-1214,-6149
4175,-526,-1654,114304,5135,-39662,-938,-1132,-6383
4175,1266,-1605,107571,4582,-39831,-1316,-969,-6123
4223,-1571,-1257,147077,7618,-71514,-27463,-3740,-4722
4223,-462,947,136741,6751,-66128,-23751,-2993,-5186
4223,-1753,1034,124014,5226,-61316,-19071,-2482,-5227
4223,-1441,-2827,106004,2206,-32139,2732,-1552,-5228
4223,-1463,-4774,110121,4104,-17772,1186,-1741,-4724
4223,2394,1343,128929,267,-34698,2907,539,-7523
4223,1238,1015,124080,1150,-31622,2080,114,-6734
4223,-1647,535,116619,1991,-35138,-848,-678,-5630
4223,105,7543,84994,-1894,-45350,8093,126,-6251
4223,-77,6690,88203,-676,-38990,4774,-79,-5659
4272,-1082,-344,145515,6263,-35104,-7389,-1710,-5034
4272,-53,360,122537,5181,-23685,-1442,-1550,-4435
4272,-205,5873,108421,5661,-53459,-15926,-2553,-3438
4272,2758,4359,107156,-1863,-92590,-14311,-896,-5516
4272,-493,474,106695,115,-86974,-15794,-1781,-4270
4272,942,171,111274,-1199,-48264,4394,844,-6570
4272,-590,-2635,96400,334,-43310,2540,35,-5378
4272,-306,-3467,96150,2178,-45830,-2450,-1060,-3892
4272,-1002,-4633,140843,3946,-24593,-2407,-1809,-3750
4272,-42,-3284,137954,3568,-22294,-2961,-1252,-4012
4321,-2365,-8784,147732,3875,-75562,-16855,-3411,-2895
4321,-2440,-12917,131749,2141,-42974,-1938,-2275,-3143
4321,-3681,-9089,128568,4016,-42022,-6399,-2349,-2766
4321,-898,-354,135967,-1547,-69904,-1400,-612,-4757
4321,946,523,120696,-2633,-75705,-2350,-477,-4553
4321,1485,4846,103022,-2047,-125349,-16101,-1404,-4022
4321,44,4924,102785,-1533,-115683,-15666,-1363,-3869
4321,783,7365,102883,-912,-113777,-17128,-1197,-3983
4321,-1525,2208,97116,-5273,-69417,-570,-2076,-2469
4321,-1086,5837,79371,-4143,-67489,-270,-580,-3758
4370,1605,8919,102611,660,-138652,-22005,-627,-5625
4370,1870,4948,105989,-1985,-109542,-13607,647,-6156
4370,2362,4270,98737,-1984,-105262,-13829,718,-5842
4370,1309,-8243,39174,-9364,-26932,15027,939,-5064
4370,-347,-5100,38921,-6523,-25439,10974,400,-4363
4370,-1100,-7306,67540,-629,-42832,417,-170,-4402
4370,134,-1272,40188,-1620,-43644,577,212,-4625
4370,1762,3737,20169,-1000,-51063,-1195,226,-4490
4370,-574,4273,46884,-6653,-132801,-14677,-1150,-3476
4370,355,6238,43062,-6954,-114743,-13718,-633,-3664
4418,399,4638,31416,2011,-132311,-20592,-2608,-3069
4418,1688,6418,19885,-7,-90069,-7338,-1671,-3484
4418,1347,4838,18499,-1491,-56285,152,-825,-3416
4418,205,1171,53393,-1697,-62034,1102,-555,-4059
4418,-591,-1856,53197,-1156,-54376,439,-475,-4000
4418,-2327,-9727,45765,-1932,-19901,7332,-1318,-2352
4418,-1452,-6613,46733,-1523,-24807,5961,-930,-2745
4418,-951,-2787,47489,-1433,-37107,3497,-368,-3401
4418,-1262,-2155,35414,5562,-21313,-3239,-1783,-2318
4418,-1356,-5308,42475,-333,-14573,-3912,-2192,-1672
4466,-206,2873,42361,-123,-163890,-14533,-1492,-3552
4466,731,4376,41924,599,-180660,-17923,-1862,-3021
4466,-788,449,31273,-2158,-66769,-1066,-1240,-2916
4466,3986,5213,25624,-2769,-169958,2247,1193,-5310
4466,4399,5613,12133,-5190,-184958,987,1426,-5206
4466,-1632,-3263,32649,4026,-239539,-4095,-1345,-2832
4466,-500,-2456,33074,3372,-242112,-4354,-1539,-2446
4466,-861,-4514,35652,-2409,-198192,11985,657,-4248
4466,1542,-1858,28084,-4928,-227682,9623,917,-4215
4466,1645,2060,10863,-4678,-261027,5707,541,-3708
4515,-495,3376,17501,3864,-639389,-14022,-2685,-1982
4515,-315,-49,16617,2425,-462533,-1740,-1555,-2362
4515,-151,1108,26205,5418,-513594,-10237,-1888,-1993
4515,-2168,8698,29209,8568,-1074705,-38343,-4115,-1242
4515,-903,6960,27938,8330,-962506,-30520,-3500,-1424
4515,-50,6025,1950,-296,-602605,2673,-730,-2953
4515,-1785,606,9430,567,-581675,2034,-860,-2542
4515,-287,-2195,11967,1075,-604903,-1576,-904,-2449
4515,811,6,11858,2026,-651646,786,-157,-3541
4515,678,-574,12468,2905,-634709,-855,-515,-2914
4566,-770,1527,1242,3089,-1056662,-11007,-1414,-3025
4566,-443,-1110,-5329,-148,-714610,5357,-122,-3489
4566,-1705,306,-1133,1066,-709425,1693,-368,-3137
4566,12,4184,-3640,35,-846190,1304,125,-3785
4566,-251,2626,-8307,411,-811233,643,115,-3542
4566,-95,9442,8042,5495,-1678612,-30592,-3664,-1371
4566,-612,1953,-2616,1204,-1105354,-5977,-2462,-1730
4566,-975,-4691,-13226,-1902,-586526,12621,-1044,-2175
4566,-1167,2653,-8680,1366,-879853,2783,351,-3639
4566,578,1963,-13512,1176,-855049,1945,261,-3568
4613,770,8148,15907,2671,-2148919,-23873,-1884,-2370
4613,120,8397,10168,3057,-2016411,-19708,-1383,-2600
4613,1731,6204,9975,2769,-1849342,-15939,-1198,-2615
4613,-3250,-4320,3554,2521,-1187771,5177,-903,-1517
4613,-2041,-5962,5043,3213,-1188059,2837,-1120,-1364
4613,-339,243,-4890,-2830,-1514434,4130,660,-3231
4613,-1091,-638,-1370,-1203,-1449640,2967,290,-2765
4613,529,4109,8191,4431,-2568977,-11034,-1314,-2562
4613,574,-2581,-676,2182,-1517323,11955,-27,-2607
4613,-435,-1215,1572,3387,-1445749,7324,33,-2552
4661,323,3815,1493,1094,-2351882,-14648,-847,-2556
4661,1941,3881,-5630,442,-2196931,-9584,-763,-2497
4661,2197,2968,-12555,377,-1701410,898,-81,-2550
4661,1324,5268,-6034,4883,-2564031,-20483,-1216,-1860
4661,1028,4864,-10452,4189,-2398303,-16455,-1523,-1320
4661,-2408,-2620,-16461,1924,-1506227,4274,-640,-1491
4661,-691,-1427,-11076,1734,-1449956,3185,-754,-1283
4661,-658,-1636,-2961,2429,-1654572,2633,-236,-2140
4661,-786,-790,2063,1530,-1614881,1573,-191,-1869
4661,496,-1948,6583,2285,-1665474,-2220,-632,-1527
4709,2686,6778,943,-683,-3274059,-19203,-1203,-2199
4709,569,-2946,-19538,-3302,-1179179,16383,793,-2459
4709,238,1497,-2574,2968,-1507173,4675,911,-2799
4709,1445,2701,-6568,2215,-1448790,3827,582,-2394
4709,-198,2902,-7689,2365,-1520942,297,90,-1829
4709,-2238,-2852,8753,1660,-1583526,-1713,-1106,-1377
4709,-716,1356,9604,3088,-2223145,-15524,-1829,-864
4709,792,2908,-9568,3754,-524039,6222,931,-2797
4709,1610,3698,412,3518,-604251,3061,490,-2403
4709,-1831,-1665,562,3378,-365405,52,-743,-997
4758,1148,6026,11171,5744,-2186527,-23516,-1545,-789
4758,1269,6353,4439,2085,-2073514,-16578,-933,-1069
4758,243,10454,4451,3141,-2691682,-17517,-2090,-297
4758,586,10423,7988,4520,-2989438,-21146,-2267,-235
4758,-41,189,-14561,2742,537030,8345,785,-2105
4758,1476,1434,-16829,2434,487072,7020,565,-1735
4758,-69,1794,-17608,2594,276313,3045,74,-1279
4758,1269,-1510,7550,2254,431792,3066,781,-2752
4758,119,2181,13952,4328,-618939,-14198,-239,-2073
4758,-1650,-1886,-13380,2658,746835,6508,41,-1771
4807,-92,-3752,5835,2137,123040,1845,-310,-1531
4807,-1408,-4162,7795,3346,554432,5468,-135,-1477
4807,-3238,-7137,11971,4835,844675,1472,-1321,-356
4807,-2531,-5970,13329,4820,680700,-14,-753,-844
4807,-1198,-4540,-9390,1435,696862,11761,34,-1208
4807,-3044,-8100,-1801,2104,669742,8379,-258,-827
4807,-2778,-8892,8199,2403,447421,3329,-417,-770
4807,1928,2854,-21671,-1583,856648,4580,948,-1976
4807,645,2752,-12374,-1429,733622,2401,699,-1845
4807,426,4086,8430,6530,586381,-5710,-870,-1131
4854,-2295,1371,21704,7809,-1174503,-22769,-2855,204
4854,-802,-2941,15623,6768,-936079,-16876,-2395,-56
4854,-582,-6056,7043,3688,1037991,7811,-144,-1306
4854,-3,-4214,14059,865,930483,6721,189,-1570
4854,764,-812,5776,3192,1054692,2467,147,-1788
4854,779,-404,8250,2773,906460,1028,217,-1761
4854,86,-480,-8318,-1132,494273,12990,233,-1421
4854,-1537,-238,-11260,-951,855337,11095,242,-1346
4854,-1129,2388,-14102,-796,671420,5051,258,-1328
4854,-427,182,3293,-3333,1041773,2399,401,-1940
4903,-382,2465,-1918,2007,343255,-2642,-399,-1359
4903,1038,568,-2879,1734,822877,3465,248,-1523
4903,841,8829,-4561,335,-485619,-13972,-647,-1631
4903,1252,8868,-2659,-1056,-537913,-13131,-357,-1731
4903,911,-1648,4442,1153,1224858,4268,89,-1644
4903,761,-1272,3562,1280,1150418,3732,160,-1633
4903,-171,378,4547,1281,1232803,644,-709,-656
4903,1251,520,2855,1647,1142761,-171,-834,-532
4903,1089,1859,2524,2194,877490,-3628,-991,-513
4903,-1218,-4552,10337,-1565,959355,9492,-163,-927
4952,488,932,7687,2390,84549,-7713,-1528,-341
4952,396,618,-138,2340,575894,-3999,-1091,-604
4952,-759,5246,-2023,2777,1266464,1956,7,-1140
4952,-1117,2857,-3522,2244,1163410,667,-272,-843
4952,624,6599,5825,2498,-367814,-16094,-1891,-191
4952,-1168,7835,5884,1404,-393882,-14282,-1584,-362
4952,-855,8062,2607,920,-430632,-13322,-1165,-648
4952,-1253,-3660,-1356,1659,1359613,3953,-485,-581
4952,594,-2578,4017,2921,1132216,550,-378,-701
4952,351,-3356,22051,2005,1347062,3102,89,-1145
5001,-1957,5322,7114,4683,-230449,-22909,-2236,195
5001,-1915,3162,10888,-389,-430986,-19353,-2286,415
5001,292,-2839,52,786,1299652,10229,605,-1669
5001,-226,-2799,1884,2509,1160774,6604,62,-1066
5001,295,-222,-4329,-1316,1415158,5970,629,-1339
5001,579,134,-2647,-2148,1303377,4971,621,-1550
5001,502,359,1719,-1754,1042895,1208,162,-1534
5001,168,5123,5949,-134,-251904,-11525,-1219,-223
5001,1535,5693,6316,-579,-270177,-11357,-1458,-182
5001,-667,-1321,10781,658,1407313,4300,80,-1567
5050,-1602,-256,227,694,478235,-4048,-851,-1780
5050,-1199,-2090,-8104,-1571,1041992,6233,153,-1803
5050,1933,-170,8776,345,1341903,3426,476,-1737
5050,-677,161,10730,1713,1095827,-1427,-256,-843
5050,-556,-818,-1170,-785,1172851,8042,229,-1699
5050,509,-22,-1349,-512,1109279,6896,283,-1485
5050,-497,621,-383,-112,970337,4078,231,-1246
5050,29,-1211,4442,970,1233925,3161,37,-882
5050,26,-1720,9393,101,1145742,2717,130,-1038
5050,2523,5645,8672,2195,-286972,-11549,-1105,-1162
5099,4609,1778,12919,1348,-46239,-11119,-981,-629
5099,3180,-2784,7025,-936,622528,4926,47,-796
5099,-4036,719,-3196,-459,1270181,2959,-379,3462
5099,-3732,-275,-1740,193,1185532,1980,-673,2913
5099,2535,458,12069,1636,1246476,2379,342,-2885
5099,3953,710,9192,-155,1151810,1663,315,-2647
5099,2982,2039,7948,-2303,829550,-4310,-6,-1994
5099,-4713,-1537,-8784,44,1036681,5752,-56,371
5099,-4517,-1090,-6144,761,918241,2829,-539,1128
5099,-782,-1608,-678,1870,1165954,1490,-404,-581
5148,-140,5614,-4510,3694,-448817,-21469,-1760,-654
5148,597,4655,-8346,2833,-346207,-14846,-1120,-905
5148,679,303,-3774,-1909,-397732,8231,130,-564
5148,-1446,-2739,-13517,-3616,653009,19352,937,-211
5148,-2243,-1409,-12094,-1547,669625,10966,348,508
5148,2537,-713,-6519,1447,1268485,1940,-183,-1158
5148,915,-199,-6838,1384,1164246,1189,-165,-1247
5148,4100,4425,4087,1517,826816,-8239,-324,-2260
5148,3883,7997,11436,3741,-107473,-22533,-1232,-1020
5148,2051,-74,2434,-152,1214017,3844,538,-5164
5197,-666,2084,11025,1368,288222,-7320,-2101,5877
5197,-844,511,7892,1595,770280,-2212,-1254,3567
5197,702,1327,2734,731,1188393,2676,-184,-2435
5197,2638,1632,1680,1302,1102613,1750,27,-2612
5197,2346,1864,2652,2105,886837,-2107,-160,-2354
5197,431,-1002,4225,-2690,725475,9767,204,1390
5197,737,-435,2677,-2442,686695,7470,237,1717
5197,1390,-1904,19415,159,432474,1617,-289,-169
5197,530,-400,10886,-178,308320,-477,-380,863
5197,496,3278,20311,3688,-708926,-14136,-1324,771
5245,-2182,3337,28450,1881,-1606208,-14054,-1256,945
5245,-2645,3317,26935,2006,-1544696,-12321,-1291,1095
5245,-599,-240,13064,1053,-656999,5360,56,-1204
5245,-379,-135,12844,1419,-685008,3743,-122,-252
5245,937,426,14119,2069,-841766,129,-295,690
5245,1810,36,16620,796,-1123909,2798,248,-723
5245,165,1287,9761,338,-1134261,1563,155,-897
5245,-1708,-977,17562,-932,-1457395,8653,484,-1931
5245,295,206,17249,-950,-1389118,7219,445,-1879
5245,-1397,-1949,24590,756,-1776036,1284,-803,1366
5294,-5,5166,35008,4598,-2907472,-18692,-2232,2365
5294,-1281,797,25946,1519,-2161957,-1856,-1136,430
5294,2204,2478,26957,1491,-2786800,-10454,-1675,5693
5294,670,2226,29060,2362,-2741476,-13393,-1915,4485
5294,2022,-2727,22577,-554,-1001256,5765,-128,-228
5294,2936,-2118,21374,-690,-953907,4693,-8,-487
5294,1446,-471,25046,576,-486851,2835,264,-2463
5294,2767,-436,23917,821,-416472,2417,193,-2130
5294,1440,-158,24077,977,-384101,1256,83,-1685
5294,-773,-433,20958,112,491383,5319,11,1924
5343,-692,2842,25918,354,187763,-4988,-549,371
5343,903,-570,19944,-1133,607983,5517,172,-987
5343,-2364,-771,22650,210,905565,1609,-913,829
5343,-3393,-643,21683,157,846109,1085,-862,367
5343,2174,2858,30602,2183,625863,-12149,-1561,1483
5343,807,4205,32685,3928,432284,-18533,-2071,1653
5343,3779,-658,26161,-254,1212773,4918,19,-3527
5343,4904,-201,25410,-177,1129530,4032,65,-2168
5343,3814,662,25866,395,984297,322,-64,-828
5343,-4442,-988,23268,1007,1066333,1877,-848,2095
5391,73,3184,28036,3412,708145,-14565,-3200,3201
5391,-111,5887,29670,4230,440981,-23837,-3411,2658
5391,-4222,-3809,17080,-2340,1270138,9314,280,1147
5391,-5485,-3358,16749,-1882,1159779,6486,-241,2498
5391,2669,644,11771,927,1107022,3946,232,-466
5391,4315,1281,9913,168,1034835,3637,231,-930
5391,-793,3297,21511,2657,867798,-12468,-874,617
5391,-698,3129,20276,2070,824322,-11557,-726,520
5391,-1311,3522,19833,2106,749373,-12553,-662,341
5391,3619,-193,7010,-291,1018562,5242,830,-1023
5440,2317,2216,18878,2996,719671,-11707,-759,-3316
5440,3584,-1903,11489,58,925572,4500,630,-4752
5440,7759,227,10635,-1641,891169,8239,693,-2618
5440,7233,532,12124,-1185,813159,5770,987,-4267
5440,-3907,-3276,10760,-1794,949089,6803,-1015,5064
5440,-1444,-2861,10465,-1504,883223,6247,-2376,4974
5440,3368,-115,10573,1027,876427,3160,4614,-8613
5440,3335,70,9832,1130,823961,2931,4723,-9041
5440,1492,691,11058,1928,734742,-892,4287,-8641
5440,-1687,1732,7432,2114,623856,-12499,-2518,1681
5489,-5858,2639,-5573,3152,577936,-14575,-2714,2240
5489,-4910,-266,-10336,849,678178,-2539,-1674,2052
5489,259,-1620,-57713,273,730781,4545,-399,-4459
5489,2092,-1594,-53518,1176,671443,1980,-1436,-3430
5489,697,554,-88523,670,635402,2285,166,-2536
5489,1149,806,-83792,1108,582751,-12,-186,-2045
5489,2177,-2366,-102815,-580,645137,6825,551,-2996
5489,272,-2233,-96867,-653,604641,5980,458,-3270
5489,132,-1912,-90375,-299,555272,3969,300,-3593
5489,791,523,-95085,1097,535849,-925,-743,-1137
5537,3507,4897,-84160,1325,309575,-15080,123,-6290
5537,2764,5211,-77315,1098,264432,-17894,-81,-6490
5537,6516,6181,-77578,5059,220774,-24349,-3375,-3844
5537,6561,5178,-74532,4516,242299,-19529,-1005,-3236
5537,-4264,-3072,-104308,-5216,447306,8160,-3219,-3491
5537,-1647,-2190,-99619,-5026,401481,5673,-4962,-274
5537,-3256,-2297,-136260,-1548,372278,8168,478,1714
5537,-1631,-2200,-130164,-987,346882,7016,1991,1091
5537,-1508,-1288,-123454,76,293541,2216,2023,2367
5537,-2100,-3426,-165304,410,359275,8309,524,-3248
5586,2078,4244,-166155,178,263388,-9168,-648,-704
5586,2089,-139,-161069,-1648,358448,5504,374,-1900
5586,-3345,-3840,-179005,764,407870,2989,-161,-1613
5586,-3102,-3307,-172051,711,380830,2270,-20,-1632
5586,321,5570,-188394,3351,250918,-23082,-2414,-1827
5586,643,2837,-182620,1170,305221,-11141,-1197,-2424
5586,-1351,-794,-193702,-1220,409421,7090,738,-1611
5586,-1283,-510,-182972,-1267,382315,6242,419,-1359
5586,-792,430,-171713,-781,337089,2534,-112,-1188
5586,-6298,-569,-169093,-1264,342390,3738,92,-1486
5634,-1647,3939,-155599,2535,199531,-17439,-2761,2139
5634,-515,2953,-147441,1993,207196,-15245,-2658,1298
5634,1174,-1162,-150873,-1184,309961,10239,-1753,609
5634,-954,-693,-141898,-1446,277831,6918,-3258,1816
5634,2998,450,-147289,-2423,251485,5511,-612,-10627
5634,5077,534,-139259,-2045,231538,3891,-1218,-8083
5634,-10905,-2587,-155768,-3656,264862,9202,-4668,-6723
5634,-10014,-1576,-147418,-3052,231416,5495,-5226,-424
5634,-6708,-248,-139023,-2962,191343,834,-4839,1000
5634,-2229,-718,-161820,-2579,234060,3730,5004,-1189
5683,-1821,4232,-158582,1132,143891,-15987,-1843,-150
5683,-2992,-78,-157769,-2054,254728,4774,-1271,-624
5683,-333,4739,-170944,-615,255433,-10999,392,-3216
5683,1715,4974,-162060,-624,245121,-11131,434,-3349
5683,-791,-1878,-173085,-2790,418218,7036,1038,-1651
5683,-869,-1262,-165143,-2453,390534,5915,879,-1771
5683,-662,2495,-169003,-3601,395768,5144,1611,-3587
5683,272,2041,-158823,-3133,374315,4524,1580,-3326
5683,-126,1816,-149192,-2584,352590,3217,1367,-2543
5683,-1084,386,-149659,-3586,389647,13859,-1778,3580
5732,-7364,3539,-138313,-1687,323575,-1533,312,-61
5732,-4250,1095,-133158,-3722,335930,8410,1819,-1541
5732,-4145,2929,-127679,-3479,315024,7183,5401,2184
5732,-7231,3134,-119685,-3004,290463,4757,4322,1629
5732,6168,7677,-111632,-1006,241475,-7131,-1300,-2083
5732,5564,7466,-105374,-1678,227137,-7422,-934,-3074
5732,2562,3458,-105938,-3112,272872,6788,-5090,1995
5732,1838,3247,-99788,-3417,255590,7210,-3097,1820
5732,-151,3270,-93723,-3759,235902,6478,-861,-560
5732,-5687,2668,-90426,-5812,224554,11143,5279,-427
5781,-967,8782,-79848,1177,143759,-20847,-3131,-2893
5781,-2030,7375,-75626,706,145711,-17413,-3683,-2248
5781,-3164,602,-81197,-6709,218450,10558,1060,427
5781,-4378,1241,-76054,-5275,202846,9079,1086,536
5781,-2428,1074,-70395,-2912,200571,7097,1310,-2915
5781,-2969,1043,-66033,-2925,187780,5055,1263,-3401
5781,-1617,1240,-61413,-2733,170020,1880,825,-2851
5781,-2329,4823,-54618,-628,162967,-8160,-395,2428
5781,-1583,5043,-51465,-674,152989,-8276,-136,1033
5781,-368,3050,-52956,-4073,186823,10341,2359,-6665
5830,7275,3523,-47317,-2778,166880,3070,-3163,738
5830,5128,1672,-46785,-3991,174915,11363,-4368,85
5830,-8299,3080,-42508,-2058,172296,3168,-4750,6232
5830,-5687,3390,-39801,-2263,160278,2275,-3749,4493
5830,-2970,2153,-37608,-3621,166265,12626,2868,-1329
5830,-656,2273,-35099,-3735,153361,11219,3688,-2170
5830,4782,4595,-32670,-1822,149084,8136,-298,1980
5830,7160,5184,-31121,-1571,139393,6976,-455,4122
5830,-36,6208,-24609,361,109236,-7959,-2815,-1837
5830,-532,5580,-23253,-557,105566,-5127,-2066,-2339
5878,-1139,2880,-26455,-4704,135534,11625,379,-5416
5878,-3516,1975,-23164,-5519,124657,9367,700,-2821
5878,-2379,2018,-21550,-5066,116365,8463,624,-2125
5878,-4708,2558,-19222,-3390,103641,4837,609,-1158
5878,-7010,923,-17642,-3833,107922,8370,-4181,-1221
5878,-6033,2246,-16555,-3059,98724,6283,-5025,-1053
5878,-4679,-1080,-15556,-3900,110612,14042,1671,-539
5878,-5748,-522,-14162,-3214,100259,11427,1410,-1213
5878,-4096,1213,-12358,-3028,96562,3322,-3797,-1283
5878,-3552,1133,-10901,-2284,90294,1639,-2287,4247
5927,-2437,976,-14030,-4383,85538,11404,2943,-16138
5927,-759,4562,-4720,564,72260,-8045,185,-3129
5927,-54,7416,-3039,1535,48080,-17267,264,-2613
5927,2093,7336,-4122,444,44822,-13780,530,-1815
5927,-14580,-1009,-8491,-1141,89208,9549,159,7671
5927,-11809,-689,-7683,-1221,83055,8315,-1690,4176
5927,-3386,1113,-6649,-2369,81944,15335,4774,383
5927,-11,1684,-5869,-1553,74412,15458,3466,349
5927,-10971,990,-5261,-2857,79575,13520,1411,8673
5927,-11392,1051,-4697,-2274,74303,11666,759,6628
5976,798,5979,29,-818,37485,-8916,-4175,-1033
5976,-10454,3,-2642,-785,70632,11275,-3257,6980
5976,-11376,269,-2536,-952,65459,9884,-2280,3806
5976,-8129,1308,-1700,-548,55781,5317,-1848,2437
5976,-2888,6833,4338,1963,21596,-18064,3114,-7552
5976,225,4089,1387,819,38395,-5890,2302,-7923
5976,421,738,-1949,-3475,75253,13805,1734,-5379
5976,-302,-326,-1210,-3047,70052,11414,1838,-5102
5976,-3653,-242,-168,-4349,88890,12561,-812,-3995
5976,-2535,578,567,-3558,79776,7564,-1633,-4088
6024,3744,5273,2484,-1333,62654,-4573,3092,-2181
6024,6284,-203,-766,-4461,101104,14353,2006,-1282
6024,2856,75,-659,-4159,93968,12273,2002,-1858
6024,-266,783,-39,-3316,84770,8256,1700,-2986
6024,760,186,496,-3499,93057,9476,4966,-3344
6024,-1737,672,666,-3321,85525,7354,3717,-1447
6024,-3743,-1971,-96,-3187,100326,14075,2424,389
6024,-3483,-3286,-1186,-3128,100354,17390,-1298,1324
6024,-1615,-1112,2382,-2002,85894,8602,705,-935
6024,-1508,-559,1744,-3795,80120,16385,2082,-218
6073,714,3348,3230,-2069,65633,-2502,1250,-2313
6073,-701,3370,5263,-2611,67313,-7138,3713,-2363
6073,-2697,2999,5009,-2044,63764,-6468,1347,-1337
6073,-5475,2746,4786,-1267,59603,-5878,33,-1354
6073,-9700,-2639,1670,-4504,83417,12666,-8712,8272
6073,-9358,-2483,1973,-4235,78064,9963,-9702,6640
6073,-1732,-973,1899,-5260,77654,14144,2439,-8695
6073,-4018,-882,2262,-4110,72117,8757,476,-9255
6073,4809,-2392,606,-5034,85315,15204,578,-16264
6073,687,-2130,1307,-4395,78905,11887,-2057,-15893
6122,-7578,-1592,3081,-2841,73541,7016,44,2493
6122,-6394,-1238,2467,-3004,70415,7839,673,-752
6122,233,199,2464,-5513,67272,6079,-387,-1727
6122,2261,652,2556,-4589,62021,5238,-567,-3018
6122,1193,5002,5823,-3987,49995,-2184,4764,-1653
6122,2880,4530,5346,-3806,48079,-2239,3289,-1435
6122,-8411,-2206,3060,-4358,60915,8587,-3753,374
6122,-10150,-2050,3422,-3444,56776,6023,-4824,520
6122,-9631,-1390,3766,-6205,47386,11764,1267,2214
6122,-7583,-743,3408,-5799,44025,9899,894,-1245
6170,-4704,3677,8655,-1312,16841,-16378,-1760,7378
6170,-4211,-4517,-140,-9177,43583,22472,-3003,2671
6170,-6202,-4920,331,-8262,41296,20819,-4727,3121
6170,-8724,-3342,1943,-6522,32539,12979,-6579,3537
6170,11452,609,2830,-5767,15337,5847,1451,-5782
6170,6163,405,3109,-5098,12785,4075,230,-363
6170,-5212,2078,7841,-2918,-3166,-12598,-10177,3267
6170,-6266,1793,7485,-3078,-2801,-11322,-5971,5630
6170,560,-1249,3789,-5437,7279,3877,-2878,7419
6170,3392,-449,3442,-5034,5263,248,-3674,-25
6219,-2527,833,3943,-6403,-697,1836,-5107,-7205
6219,-4443,-1798,4482,-7751,11758,11513,2668,538
6219,-1560,-1212,4096,-8096,10172,9243,2895,-2398
6219,-1341,-127,4587,-9362,6137,6575,2905,-3663
6219,-3623,-3262,1957,-11602,14215,22466,1095,-7044
6219,-4132,-2652,2338,-10064,11484,16031,-978,-7468
6219,-6909,-1309,3988,-8180,5000,2902,-268,3144
6219,-5626,-1353,3970,-8353,3806,5213,1015,3795
6219,-4761,2596,6981,-5218,-12876,-9322,1976,9965
6219,-13457,2003,6631,-5076,-12327,-8962,1177,9981
6267,-6404,-1907,2980,-10317,2366,7024,8076,-2058
6267,4022,-1109,3712,-9772,-3077,6916,4379,-2183
6267,1389,-834,3305,-9174,-3372,6826,3637,253
6267,969,-110,3018,-8458,-4849,5451,3012,3269
6267,-1591,-887,3654,-8395,-7641,819,-4993,-6874
6267,-1259,76,3616,-8447,-9602,-413,-3356,-2980
6267,-1965,-3349,1174,-11345,-2206,13635,-1172,10402
6267,397,-2179,1428,-11096,-5079,11186,977,7059
6267,-18058,-4552,5871,-9724,-12667,-3004,-6839,11636
6267,-14170,-4166,5720,-9316,-11921,-932,-8462,11471
6316,-1380,1887,7484,-5565,-27247,-15736,-1958,5584
6316,-16962,4522,11178,-6355,-39050,-24965,-1101,-2847
6316,-15139,4579,10593,-7363,-36748,-21163,1969,-1946
6316,-14821,1832,7845,-10005,-27091,-9548,6300,1309
6316,12070,-2568,2650,-10035,-8840,8840,5076,1232
6316,13741,-2353,2582,-9291,-8660,7033,5323,4429
6316,-2107,-2668,3881,-13213,-12547,3384,-1146,4763
6316,-1337,-2196,3633,-12658,-13537,-3001,-3541,7032
6316,-6062,-3712,3303,-17336,-15629,15259,836,2867
6316,-4449,-3529,3360,-16217,-14931,15229,4955,1900
6365,788,-1743,4788,-12164,-17897,5878,-3585,7375
6365,974,-3030,3285,-12311,-13190,11290,-4799,6440
6365,-4589,-3312,4513,-15171,-21149,12812,45,332
6365,-132,-2114,4237,-14393,-22551,8946,1496,-2041
6365,-3203,4620,11979,-11716,-45717,-18691,-1423,5328
6365,1349,1494,8359,-13425,-33607,-5125,-393,-139
6365,-14578,-3886,4166,-18692,-23885,15549,-5795,5546
6365,-24150,-4689,4517,-16491,-22305,18123,-2583,10449
6365,-20258,-3946,5160,-13818,-23229,12324,-3924,12975
6365,-13314,-3926,5633,-17390,-24760,22218,4323,13736
6413,-3996,1344,9434,-14867,-39151,-20279,-2084,11489
6413,6627,-3115,5169,-18598,-23368,17412,10324,-889
6413,923,-3041,4925,-17746,-23131,15096,5599,4302
6413,-2045,-2344,5520,-17296,-24954,11790,2393,7421
6413,-11109,-4921,7373,-16084,-24885,3350,33,2896
6413,-15121,-5105,7401,-14365,-23816,3446,-590,11390
6413,12452,7145,12784,-14492,-50474,-15701,-19850,13233
6413,12876,527,7386,-18368,-29276,9459,-21034,9617
6413,-264,-2365,6592,-17562,-25730,11569,4014,258
6413,-5342,-2908,7037,-16424,-24075,9784,2655,3632
6462,-1657,187,8412,-15674,-29976,-4001,2526,13236
6462,-1352,539,12040,-11193,-35318,-6721,1174,-1889
6462,-2656,538,10666,-12946,-33174,-410,3824,-3452
6462,-1839,1363,10579,-15952,-34169,3218,7660,-4090
6462,8931,-3180,6290,-16067,-19118,12918,655,2046
6462,9115,-2872,6585,-12666,-18256,10190,5435,-754
6462,12288,-56,7036,-17819,-22186,18316,16909,-12944
6462,8601,-119,6700,-17682,-21486,18254,12284,-14796
6462,-1504,-4101,8664,-17461,-16321,8622,-7524,4714
6462,5153,-4492,6922,-17929,-13520,12143,-2721,10624
6511,-16563,343,12252,-12533,-30204,-12410,1784,8212
6511,-26718,-5323,9671,-13415,-16587,2101,-1417,19081
6511,5928,-1243,8524,-16659,-17509,11828,3656,9162
6511,3021,-1747,8412,-15011,-16446,9329,1716,6745
6511,2522,1929,12344,-13906,-29092,-10786,-12876,15069
6511,1021,2938,11618,-13763,-28764,-16370,-8966,13979
6511,11094,160,6833,-18691,-15218,26800,7958,-3568
6511,-5088,-1033,7416,-15855,-13934,11923,3496,810
6511,-16075,-2065,9049,-12379,-14218,-1044,-580,6173
6511,10519,-386,8913,-15627,-14187,14702,15076,-6379
6560,-15926,1814,14842,-9201,-28913,-28176,-9650,14213
6560,-8006,1129,12410,-10154,-23365,-19964,-11412,8187
6560,-11707,-6023,8015,-17391,-5437,17180,3920,6036
6560,-14482,-5555,8541,-14817,-6268,14341,4141,8486
6560,-4178,-901,8217,-15185,-13042,9210,741,7413
6560,-7313,-1764,8549,-13788,-12043,7824,870,3201
6560,7921,3528,12164,-13581,-22595,6044,426,7410
6560,8333,3770,11124,-12989,-21829,7601,-2245,7385
6560,7957,4479,10705,-11747,-22256,-63,-2192,3810
6560,-6404,-2570,8637,-13151,-8548,5620,4546,2573
6618,3272,1473,12261,-8253,-19057,-9085,6701,-3115
6618,5621,-1526,8543,-17248,-10401,16612,5267,2145
6618,2615,-1197,7758,-15951,-9432,18152,6463,3557
6618,-8140,-1950,8408,-13708,-9431,17111,1986,8440
6618,-4220,-6081,7036,-13080,2398,17389,9658,1197
6618,1574,-4450,7257,-12436,-43,13947,6662,-640
6618,-1316,-1255,8358,-11169,-6888,9409,8175,1565
6618,-2670,-691,8103,-9685,-7602,6488,5167,2106
6618,-880,3248,12219,-8467,-19849,-12764,-2018,14051
6618,-1193,3216,11367,-7586,-17644,-13774,-4825,16023
6667,-6495,949,11802,-8143,-14990,-15398,-1173,4427
6667,-1129,-968,7775,-11603,-7032,10955,5056,3428
6667,-733,3179,10878,-8916,-19724,-1724,6086,2549
6667,-1012,-1535,7717,-13221,-5159,14724,12425,4594
6667,-1532,-1125,7121,-12297,-5339,12909,10651,4855
6667,-9618,-8406,6201,-13488,7274,18532,-1110,6515
6667,-4139,-6727,6545,-12584,4254,17216,165,4524
6667,-2651,-4798,6811,-11248,1054,14976,648,3324
6667,4215,-917,7129,-11909,-6006,3340,-2134,-4682
6667,2439,-1236,7141,-10695,-5236,5619,-1667,1037
6715,12231,5033,8678,-15061,-17531,4840,1271,3549
6715,6682,4086,8477,-12535,-14838,567,489,3607
6715,107,2895,7915,-9994,-12363,-4017,-841,4503
6715,-5661,-1835,6243,-9433,-3431,2949,-547,-1629
6715,-1616,-969,6001,-8787,-3960,2213,-743,-1875
6715,-8600,-2402,7372,-8580,-2556,-1018,1392,2800
6715,-7904,-2405,6996,-7277,-1783,-1478,-230,9282
6715,-1571,-901,6658,-7034,-3492,-2157,-16,11859
6715,13087,-662,2881,-10468,2439,14665,4721,-13157
6715,13350,-14,3097,-9885,461,14425,6554,-16758
6858,8484,675,2804,-9588,-1193,-404,2840,-4073
6858,5606,-375,1907,-10002,983,2066,134,-6164
6858,-12985,-5289,186,-12654,11846,20655,15759,-8156
6858,-10286,-4058,585,-13550,7114,18469,13806,-10170
6858,-7749,-2907,1272,-12331,2181,13400,9662,-3591
6858,6056,751,1714,-11155,209,-4536,-5242,-7631
6858,7241,915,1643,-9901,-748,-5090,-4768,-7205
6858,-2930,4778,6946,-7338,-15240,-20152,3526,9992
6858,-5253,4290,5967,-7620,-12680,-17174,296,10949
6858,4501,-987,951,-13165,2842,4821,4446,9036
6907,-9784,-1395,1105,-12234,2972,2261,-1906,10266
6907,-9118,-1480,1542,-11551,1941,3023,-3046,10202
6907,-2195,-1478,1685,-12243,2411,3336,548,6427
6907,-2888,-1184,1359,-12113,1426,2653,111,6199
6907,-2245,-830,1830,-11329,-1644,-816,-382,5796
6907,-4481,-3756,-1983,-14059,12268,13196,-781,2412
6907,-6983,-3008,-780,-12205,9272,9487,-695,4640
6907,15866,716,-76,-14331,-17,-2238,-2589,-1295
6907,13092,748,488,-13423,-1302,-6668,1583,-6573
6907,-1788,5222,5042,-13362,-14324,-20474,-903,939
6955,-718,3121,3404,-14553,-7612,-14062,-4403,1450
6955,101,3037,2860,-12872,-7230,-14485,-3542,1349
6955,5059,-172,-650,-18177,2215,1245,-2124,2942
6955,1985,-108,-272,-17380,2188,2266,-2939,-3642
6955,-3847,4,1064,-16233,1067,846,-4873,-8897
6955,10256,1086,-557,-20391,2297,4897,5936,-7894
6955,5043,970,-89,-18684,1678,3566,4813,-6573
6955,-3844,1364,4114,-20140,-5392,-12103,-3436,11574
6955,5351,-3510,-1463,-23932,10840,14090,-136,5742
6955,7445,-3,-893,-28474,2798,7851,-8927,-2075
7004,-981,4,921,-25005,1508,-2597,3747,2790
7004,2240,-645,-418,-24129,4829,5626,3517,4931
7004,-4476,2639,2462,-25166,-4629,-7806,228,8293
7004,-3771,3502,2248,-23551,-6032,-10266,-784,6793
7004,16,8269,5911,-18932,-18751,-24910,898,4540
7004,-11481,-4093,124,-23991,5542,-1065,-5256,6638
7004,-10471,-3695,505,-22262,4325,33,-4060,6213
7004,3864,161,-1269,-22491,2934,4633,6261,871
7004,2641,321,-990,-20311,3170,3753,9371,-802
7004,-3684,-3393,-1366,-20975,7750,8846,-1061,-4273
7053,3793,1360,2336,-16599,-3071,-4494,961,-2961
7053,6456,-1012,-915,-17890,5832,9662,3356,-4067
7053,3302,-1615,-443,-15906,4832,1670,2077,-3594
7053,5680,-582,-1078,-15802,3879,4365,-2734,-494
7053,9348,569,-1024,-15866,2332,6198,-6414,-1782
7053,-1294,1161,3190,-11476,-6226,-16320,-374,2092
7053,-6091,1786,3001,-10798,-5858,-15355,-352,1968
7053,-6008,-2268,-1297,-9752,6719,-80,-13461,9793
7053,-4116,-1033,-1412,-9363,5211,-1304,-8111,9017
7053,-8723,-3629,-432,-11624,3963,13700,6532,6383
7102,-2913,2827,3414,-7377,-9257,-14393,-3222,4078
7102,-1778,1392,1953,-7424,-4634,-7064,-331,2743
7102,684,-3470,-1447,-8416,9572,8400,-9438,9750
7102,2256,-3116,-1160,-7533,8684,9511,-5297,1978
7102,571,-1439,-1149,-6775,5060,6702,-2489,-5900
7102,4855,354,-2012,-7648,3973,3677,2716,-9706
7102,-11579,-1238,-1158,-6162,4021,3332,2761,-2102
7102,2450,3523,1114,-2389,-3779,-12051,2823,-2401
7102,3620,2569,-800,-4046,737,-5626,292,396
7102,-929,-939,-2136,-6317,4862,7357,9078,-5375
7150,-2904,1911,2906,-1288,-7066,-18416,-7773,3238
7150,-2906,-809,0,-4641,750,-3231,-1958,5323
7150,9182,937,-2284,-5254,4856,6935,1762,-5274
7150,6206,2783,-64,-2945,-2725,-4793,-259,-1118
7150,2440,5305,2648,-1585,-11894,-13596,-554,4868
7150,-1772,-2152,-3273,-3169,8872,10362,3252,-1573
7150,-1466,-1780,-2812,-2100,7628,7379,4179,519
7150,-5912,-2667,-983,-2613,7093,8365,-2933,11900
7150,-2873,-1910,-1291,-2704,6493,7129,-5578,12592
7150,-6176,226,1071,632,-2313,-13364,12664,300
7199,1237,2095,266,954,-1928,-5715,-5275,-1589
7199,1101,1040,-744,296,1864,-1435,-3483,-344
7199,-404,-1104,-2622,-2134,4655,6385,2208,-1220
7199,14,-876,-2298,-1989,4343,6766,2225,-122
7199,-1094,-256,-1220,-1095,2872,2965,1883,-575
7199,4925,2240,1007,586,-4849,-11464,-7736,-3048
7199,5452,4074,2168,1457,-8877,-13191,-2473,-1380
7199,966,-5199,-2848,-2639,9466,10442,1246,1743
7199,2727,-5510,-2435,-3021,8020,9616,1219,2057
7199,-6377,-1964,-1561,-677,6958,6441,-4046,2624
7248,7206,6666,2184,2424,-10360,-15526,5956,-2762
7248,3042,4896,1789,1351,-7078,-11430,926,-3765
7248,7207,4289,-932,-31,-438,-3230,2053,696
7248,2676,-1295,-5448,-3467,14746,20642,7028,-4022
7248,-2848,-2097,-5297,-3265,15283,21137,6024,-3921
7248,2300,-2605,-1303,-510,5991,3653,-4944,5783
7248,3640,-1711,-1031,95,4385,1997,-5501,6494
7248,-1851,2535,2308,2758,-6150,-13369,-14,8532
7248,-1230,3083,2696,2664,-6137,-13493,-1136,7632
7248,2924,-2138,-2221,-915,7163,7445,-1098,1016
7297,-5559,-251,-902,-571,3691,6370,-5248,4725
7297,-6106,-2797,-1934,-1447,7951,10781,-1095,2601
7297,-1763,750,983,2023,-1473,-5695,1776,2443
7297,-5196,-1627,-2080,-323,5239,7543,-2196,1341
7297,-15376,-2659,-904,797,5407,9457,-3932,8210
7297,5674,-3489,-2466,594,10470,11126,3082,1099
7297,6622,-2222,-2046,1059,7850,6866,1338,-193
7297,-7344,-536,-899,1873,6950,1015,2846,3117
7297,-4428,-313,-1011,1601,5991,133,-2794,1723
7297,-149,288,-669,1911,2859,-3708,-9238,1854
7345,-8190,1548,2116,4710,-2575,-17511,-5684,10059
7345,-3728,1325,1248,3170,-655,-12111,-5024,5303
7345,5264,-1843,-2036,11,8165,5820,-1094,1647
7345,5248,-1229,-2003,-808,6732,5678,-503,1502
7345,1921,-114,-1541,-1305,3279,3870,456,1149
7345,1517,-2000,-1696,-163,4229,-371,-1208,805
7345,2529,-1463,-1413,243,3830,-1330,582,-330
7345,3094,-1899,-3214,-2267,8139,11890,1625,-6417
7345,7538,-620,-2544,-1338,5996,7779,1103,-10943
7345,-6125,-977,-956,-2280,4728,19494,-8885,3670
7394,2421,-2059,-1603,-38,2801,3401,435,2566
7394,1525,-1178,-589,394,-537,-2030,-1594,1798
7394,1396,3097,2780,3214,-10678,-21508,-3332,2111
7394,13429,3389,-102,1654,-2510,-9498,-2944,-2596
7394,8856,5483,2719,4479,-9266,-21366,-4082,-1567
7394,1415,-1280,-2674,-1915,6432,1567,-11360,607
7394,1795,-417,-2867,-1421,5653,978,-14640,1502
7394,10464,-1921,-2429,-1447,4109,8291,2484,-2664
7394,12337,-1030,-2148,-1454,2798,6557,3192,-5723
7394,10270,-231,-943,-196,1529,2254,2883,-7454
7443,-1082,1778,2642,3730,-3482,-25877,-10000,1971
7443,3542,-1017,-846,869,5446,-11823,-7616,-1000
7443,8484,-1222,-2035,-501,6852,-4831,-4677,-3556
7443,-2981,-2385,-1296,783,5795,2078,-2484,7431
7443,-3298,-2297,-382,1129,4456,-1267,-4888,6555
7443,7632,4320,39,2246,-2495,-10226,7591,-3212
7443,7802,7880,3074,4708,-12658,-25776,7921,-1627
7443,194,-1421,-2828,-541,7221,7311,-1114,4589
7443,951,-1237,-2763,-848,6348,8226,-679,-255
7443,-597,-670,-2225,-333,4843,5855,-1121,-1411
7492,-6506,3112,3006,2651,-8998,-18416,-2341,9829
7492,-1388,2240,1684,1473,-4976,-10988,-636,7282
7492,2011,2214,1037,1110,-3740,-5362,845,4730
7492,-452,-3790,-2730,-1838,9575,10884,-1500,6432
7492,-4948,-3785,-2166,-1128,8811,9606,-2450,4766
7492,-1160,-1321,-2834,-365,5746,8182,8743,2687
7492,-1033,-700,-2010,324,5301,5140,3040,1162
7492,1311,1163,474,1064,-815,3151,-10533,3716
7492,2507,2503,473,498,-3044,-598,-6847,438
7492,6621,-396,-2726,-1944,6286,10816,-984,-569
7587,-1392,-2210,-2775,-1452,8566,7558,-2371,12909
7587,-5539,-2938,-3257,-1847,9452,10288,-2896,9725
7587,1647,-413,-2182,266,6004,4037,-379,3096
7587,-1216,-1155,-1688,385,5964,3032,-105,3727
7587,-2225,-478,-1155,830,3765,-905,-2422,4708
7587,3730,-80,-2088,-1353,2835,1724,7798,-4694
7587,-1736,-1016,-1514,-704,2490,1503,2512,-2851
7587,622,-1814,-2147,-1379,6383,5023,-3488,3888
7587,1085,-1124,-1668,-905,5455,3173,-3181,2588
7587,1125,224,-1487,-122,3278,309,-599,3240
7635,3926,4940,2020,2873,-8118,-16472,-6874,4910
7635,4075,1252,141,465,-612,-4268,-10272,6125
7635,-3163,3473,1360,3826,-7815,-20349,-2945,8250
7635,-670,6476,3912,5835,-14970,-33752,-3566,5074
7635,12450,2237,-3831,-3421,5686,15465,-2756,2442
7635,10378,3087,-4337,-3415,4236,11591,1359,-746
7635,4704,2281,-3611,-1865,4080,8295,2139,2147
7635,-677,-666,-1545,99,5830,4956,305,15170
7635,-1725,-700,-987,697,5070,3900,220,9669
7635,-2727,-5143,-1871,-213,7959,3895,-2645,716
7684,5041,1587,-1096,195,184,-1310,1253,-2353
7684,6226,-569,-3000,-1354,6422,7600,1743,-2966
7684,2543,-222,-2579,-153,4275,2789,-1529,4357
7684,3244,-368,-2213,-666,3385,1630,-2390,4021
7684,3793,-434,-911,96,1171,-2026,-3667,3677
7684,5789,6547,4800,4871,-17447,-32286,-2730,-4785
7684,6990,4837,3423,3781,-13079,-27808,-2677,1952
7684,-2204,-3666,-1885,119,7754,7725,-441,-2472
7684,-2439,-3342,-1837,42,6803,5027,-4331,-214
7684,-286,-1623,-2000,-517,5492,6183,-5691,2136
7732,-3087,1379,1233,2816,-4194,-11436,-5501,6492
7732,-466,3896,2592,4201,-9203,-20334,-1612,4118
7732,-3896,-4607,-2471,503,10080,13840,-52,11219
7732,-2129,-3686,-1735,1501,8516,10698,1085,6191
7732,-25,-3116,-2620,-1257,3910,10610,-11462,3601
7732,3679,-2574,-2620,-1321,2694,6553,-4247,2490
7732,6328,-1199,-1854,664,1430,-4028,5927,-531
7732,-1572,1118,-212,676,-1989,-4706,535,6175
7732,-2435,1974,518,1499,-4120,-8557,141,4117
7732,-3645,420,-2924,-552,5005,6669,2445,6529
7780,-1152,-824,265,3259,-2781,-9673,-3152,-2886
7780,-2102,-849,624,2781,-2754,-9247,-3426,-1463
7780,7930,-1714,-2113,814,6686,7308,749,11198
7780,9702,-691,-1136,1583,4614,2618,-2756,8225
7780,-11078,-3561,-3240,1162,9955,8662,5524,395
7780,-9587,-2842,-2638,679,7916,5006,254,2091
7780,-6367,-1400,-1768,517,4939,-7,-4099,3207
7780,-1711,-3068,-1918,223,5037,4484,-4707,8836
7780,-1633,-2403,-1386,726,3816,2528,-4710,10453
7780,-203,2908,-148,1114,-3258,-5501,2502,2693
7829,763,-1876,-3265,715,6942,5902,7952,-1240
7829,2784,-1698,-2644,-1071,6023,6273,5508,-1936
7829,1385,-1046,-2300,1147,4505,4107,-671,-398
7829,2984,-996,-1936,546,3637,3535,-457,-613
7829,7284,-97,-2430,-621,1321,680,-228,-2452
7829,3899,1435,-1027,810,-2239,-7485,2500,-1197
7829,1286,5151,2274,3949,-11130,-23303,1062,3082
7829,16844,-2040,-3026,-1272,6699,12192,3526,-8488
7829,17942,-1250,-2427,-1214,3815,8526,2670,-13023
7829,-4932,-1524,-1457,1823,5516,7407,-12428,10407
7878,-715,3824,2696,4213,-9825,-23197,1848,3707
7878,626,2702,1459,3010,-5928,-14290,772,4854
7878,4056,152,-3023,-778,6167,7032,-2165,6744
7878,6581,-2682,-5247,-3139,13314,19229,4290,3719
7878,1834,-807,-3000,-604,4169,10066,13698,-3333
7878,2641,-950,-2604,236,4067,6506,10761,-430
7878,1256,-1041,-1631,1457,3271,43,4838,1800
7878,660,1050,932,3223,-3051,-9162,-5570,752
7878,5927,3898,2978,3614,-10322,-19489,-6099,2150
7878,4146,-764,-2326,-992,5008,4105,-2045,-2300
7927,-9120,1038,955,769,-3901,-6819,-6215,9722
7927,-6652,-2595,-1697,-1085,5325,7619,-5031,7629
7927,12484,611,-2834,-1375,2935,5477,-5501,-1592
7927,7400,299,-2186,-892,3421,4169,-5961,4061
7927,1081,920,-1171,-24,2562,1209,-5881,6518
7927,-4053,-4252,-2268,-1631,8052,11351,-283,2592
7927,-3379,-3498,-1625,-894,6669,10474,-192,3567
7927,-2462,-505,-1739,-1229,3249,4282,7807,5730
7927,896,-571,-1525,-650,3274,2953,4539,4840
7927,-6829,3514,2788,1817,-10015,-10927,-12641,7445
7975,3147,2285,1238,3551,-4404,-27053,7208,-258
7975,4093,2043,841,2530,-3351,-19923,4004,-342
7975,-2242,-1571,-1866,37,6961,8603,-2256,552
7975,-3140,-2193,-1922,-879,5067,7514,59,709
7975,5634,1130,-2249,-959,4046,5311,-377,-924
7975,4557,1000,-1812,-418,3263,3807,-598,-13
7975,3701,-2839,-3834,-2555,8280,12728,-3885,2190
7975,1124,-2392,-2788,-1366,6394,6087,-4838,2745
7975,940,40,-1739,-23,3100,1498,-4048,-2135
7975,3783,-29,-1662,129,2796,1839,-3900,-441
8024,-3995,-491,-1222,-525,516,34,-633,5183
8024,-9315,-2042,-1676,-1157,3162,3636,-1233,6740
8024,-6394,2009,830,515,-4831,-9091,8614,2091
8024,-5747,1299,1266,1109,-3675,-9071,4788,6992
8024,2047,-1924,-2177,-1635,3583,5467,-1294,2610
8024,482,-1360,-1544,-788,2513,3181,-1503,3102
8024,5519,145,-2063,-667,3283,13746,-4835,-37
8024,2053,-134,-1574,-318,3108,7711,-4269,1177
8024,3112,612,-1012,731,1123,-4165,-680,678
8024,-891,-3040,-2163,-1251,4890,1037,-2005,2403
8073,-145,2276,608,1613,-3236,-9526,940,2754
8073,1780,-806,-1966,-445,4108,3223,1385,1204
8073,-920,-545,-1684,763,3478,2417,-1279,1573
8073,-1002,-447,-1580,276,2419,2645,-261,548
8073,-1136,2586,1250,3200,-4387,-14472,-6104,5104
8073,1382,2393,1015,2653,-3839,-10697,-4541,4883
8073,13414,402,-3268,-2088,3181,6020,2110,-6025
8073,11845,393,-2729,-1726,2535,4771,1674,-1354
8073,8031,911,-1793,-798,651,844,1295,1862
8073,-1864,483,-1833,-387,3268,4900,4674,1547
8122,-5497,2303,2650,3321,-9036,-18203,-2130,9856
8122,-6235,588,1700,1917,-5108,-12018,-2139,8822
8122,-2322,-4128,-2436,-366,6390,6200,-3097,23
8122,-101,-3092,-1979,213,5285,3599,-2611,-2117
8122,3220,-292,-1974,-3484,3448,8771,-2935,5734
8122,5369,165,-1987,-2910,2816,8390,857,3676
8122,-2134,2493,455,1900,-3563,-10510,-6546,6488
8122,4855,4416,282,1109,-6543,-8971,-1912,-3399
8122,6309,3003,-1613,-746,-2425,-244,3529,-3665
8122,-3170,-1249,-2593,-1174,2940,2914,-4277,8313
8171,-3968,3050,1439,3009,-7117,-16626,-5450,7432
8171,-3235,563,-31,1140,-1284,-6833,-4812,4099
8171,-2546,3560,1560,3683,-8238,-20351,-670,-45
8171,-1939,2371,826,2364,-5980,-14050,-30,1301
8171,-2802,-818,-3158,-1205,8318,9852,960,2768
8171,-3393,276,-2883,-774,7037,8096,469,3006
8171,-1396,-1881,-2584,-2598,4918,8344,-920,6409
8171,-531,-1338,-2764,-2668,3833,8111,1506,5335
8171,304,-772,-2326,-1279,2997,5767,3118,4039
8171,3757,1402,-413,1159,-2516,-6451,3105,1572
8220,15460,2276,-579,959,-2577,-2826,3478,-4080
8220,9417,-1580,-3113,-993,6430,11005,3519,-3909
8220,-8436,-1821,-1682,-540,5309,2432,-3220,6164
8220,-5498,-1188,-1447,-589,3883,789,-2137,5752
8220,529,3362,1778,2844,-8118,-17258,-2214,3653
8220,-1987,2038,1006,1663,-5264,-12133,-1684,2781
8220,-1142,2545,1104,1783,-6089,-13167,-1611,2491
8220,585,-1529,-3457,-1596,6006,8334,-1023,930
8220,809,-1581,-2778,-1349,4665,7209,-6101,894
8220,-2518,-2871,-1790,-613,5575,5031,750,2503
8269,-24,3306,1802,2023,-8574,-15129,7869,4702
8269,-921,1573,503,972,-4255,-8366,6426,4473
8269,-318,2111,621,1672,-3434,-10070,-2442,2683
8269,-1778,-2615,-3009,-1998,8239,9021,-1143,2974
8269,-2152,-2510,-2728,-1236,6005,7818,-193,5172
8269,-3522,-2088,-2404,-1091,4841,6145,-445,5673
8269,-5907,-1133,-1873,-409,3001,2639,-902,6213
8269,-1422,922,887,1806,-4073,-10710,-2679,4222
8269,-1052,1399,899,1698,-4046,-10716,-2754,3881
8269,-965,-2682,-2362,-777,6609,6699,-1209,3128
8318,-1283,1523,-377,-306,-2198,-3092,-3471,2684
8318,425,-1611,-2973,-1495,5911,9267,-2471,2736
8318,1604,-2025,-2542,273,5776,5595,-923,936
8318,1457,-1728,-2172,782,5542,4772,-361,855
8318,-69,-6218,-4832,-3136,11543,16924,495,300
8318,646,-4882,-3890,-2507,9043,13497,578,343
8318,386,-3485,-2939,-1489,6760,9561,386,604
8318,4130,-54,-2594,-34,2772,3446,230,-749
8318,2602,-25,-2354,-668,2009,2942,330,-2113
8318,1939,3463,646,1843,-6494,-12527,-1587,1062
8365,505,3940,1241,2579,-7265,-14975,-2019,1756
8365,1158,2425,103,1446,-3632,-8625,-1473,1410
8365,1907,-768,-3164,-327,4022,4045,-5328,2147
8365,956,-667,-2376,-519,3223,3215,-4101,1819
8365,3442,-1088,-2486,-951,2417,5230,4029,367
8365,237,-895,-2092,-697,2339,2727,2362,2169
8365,3170,6309,850,2244,-8892,-17059,-2761,4270
8365,-270,683,-2890,-1473,4143,5161,-375,2196
8365,-888,-1951,-4551,-2737,9585,14307,879,958
8365,2004,-2173,-1972,-302,3960,4644,235,3453
8414,528,2574,-779,970,-2489,-6290,-1294,-114
8414,-5130,1342,-1671,434,586,-972,-2013,2428
8414,299,1716,95,1776,-2721,-8504,-1054,1135
8414,1620,1987,-158,1124,-3766,-8422,-1005,946
8414,1082,355,-3423,-1463,4812,6442,157,247
8414,256,271,-2898,-1590,4201,5680,333,247
8414,1457,-1247,-2525,-1052,3329,4123,132,429
8414,-32,-1775,-2204,-379,3291,3458,71,360
8414,1451,-1816,-1661,-14,2725,2072,-11,301
8414,824,-2539,-2713,-1037,5654,6630,112,81
8463,2563,4110,338,2098,-6399,-13728,-1365,1041
8463,423,250,-2354,-882,2475,1903,-195,637
8463,848,2802,-2873,-254,3487,3556,-35,596
8463,2001,1139,-2419,56,3281,3069,-128,685
8463,4168,2578,-785,614,-4433,-8584,-701,-412
8463,-1717,2243,-72,1790,-4694,-10652,-1451,1608
8463,-6465,6304,4322,5513,-15238,-30241,-3255,3519
8463,2591,-1511,-3701,-645,6079,7873,470,-499
8463,5450,-1118,-3507,-494,4434,6123,607,-2897
8463,931,-1120,-3378,-927,4359,5326,580,-2485
8512,1506,4405,1313,3164,-9074,-18350,-1445,255
8512,3663,3086,228,2363,-4899,-11897,-1085,-260
8512,486,-2107,-4258,-1006,6731,8332,-162,1653
8512,400,-1817,-3925,-950,5865,7228,-166,1552
8512,132,-55,-3615,-429,5099,4656,1211,-327
8512,322,-170,-3444,-528,4584,4435,4182,-1439
8512,260,-176,-3112,-644,2987,2814,3956,-1492
8512,963,1530,-1207,1302,-2611,-8195,-1775,467
8512,1764,2749,-345,1784,-5293,-12452,-1930,738
8512,374,-249,-4288,-1353,5305,6069,-307,-11
8560,470,3118,-1293,2185,-3529,-9995,-1398,200
8560,583,2293,-1501,1549,-2009,-7148,-1269,-47
8560,3005,-262,-3822,0,5164,4470,-653,-65
8560,2601,679,-2388,830,1673,-1058,-1038,229
8560,1690,-1131,-5282,-1201,7951,10431,99,-735
8560,-4,-894,-4535,-829,6230,8068,138,-758
8560,1155,-855,-3999,254,4792,5060,-391,-158
8560,2227,-825,-3480,603,4494,3969,-515,-38
8560,2879,3478,-1852,3807,-3588,-10144,-1732,467
8560,836,2974,-1613,3084,-2709,-8444,-1629,439
8609,766,2550,-959,2232,-2615,-8281,-1342,361
8609,6521,410,-5166,864,5927,6319,-98,-2728
8609,5736,835,-4738,1248,5704,5228,-671,-835
8609,4582,1910,-3907,1364,3232,1581,-964,466
8609,565,-1955,-2702,1680,4900,2379,-635,1459
8609,1281,626,-1091,3135,-700,-6740,-1141,1234
8609,-769,-191,-5805,171,7226,8541,-245,776
8609,-596,455,-4811,718,5534,5528,-303,768
8609,-298,-827,-4195,1257,4226,3268,-314,65
8609,49,-651,-4036,1305,3605,2717,-345,149
8658,778,5008,260,4963,-7804,-17635,-1493,531
8658,2521,5286,-1532,3387,-6982,-13909,-1525,405
8658,886,-29,-5428,-456,5901,7463,-217,-126
8658,463,-2422,-6632,-1823,10640,15379,513,-339
8658,805,1204,-4957,1167,5137,5438,-17,-369
8658,654,1649,-4430,1358,4092,3781,24,-333
8658,1424,-580,-3640,2126,3775,1192,-384,-292
8658,-200,2597,-1378,4146,-3395,-10668,-1167,298
8658,342,-920,-5112,1773,5322,4793,-79,-320
8658,603,-1022,-4647,1656,4868,4088,-154,-213
8707,1711,3289,-2123,3197,-1942,-7273,-1076,-259
8707,61,526,-4922,1868,5540,5090,-317,-733
8707,-329,1123,-4517,1682,3964,3235,-39,-503
8707,978,1852,-4269,1707,3474,2644,-65,-390
8707,542,-1926,-5825,745,8359,8757,-384,-168
8707,328,-3149,-6449,412,10369,12355,41,-342
8707,2835,-296,-5320,1955,3422,2794,-16,-742
8707,1886,-261,-4605,2601,3508,1765,-197,-372
8707,1523,360,-3559,3632,1967,-1700,-473,-244
8707,-367,4883,-1888,5204,-7303,-15811,-1092,883
8764,989,5267,-1464,5405,-8645,-18559,-2169,1766
8764,-3137,345,-6635,2821,5189,4008,-475,284
8764,-2699,178,-6151,2299,4369,3669,-193,-126
8764,-783,-1369,-5556,2511,3143,1471,-494,-1299
8764,-9,-887,-5192,2586,2543,607,-497,-1193
8764,1849,201,-4401,3049,620,-2677,-726,-1035
8764,-155,305,-6665,1399,4477,3896,-528,-1358
8764,-49,-1479,-7579,686,8125,10167,102,-1412
8764,2081,-1432,-5973,2560,2747,1331,-154,-1625
8764,1983,-910,-5392,2548,2406,872,-131,-1558
8812,337,6140,-2406,6700,-9836,-20738,-1844,-1117
8812,436,6399,-1606,6719,-11095,-22927,-2171,-872
8812,578,5224,-2126,5705,-8953,-18881,-1937,-917
8812,3191,-210,-6580,2481,7594,5520,107,-1810
8812,3336,232,-6097,2617,6587,4251,-65,-1618
8812,24,841,-6324,3420,4262,2650,-118,-1617
8812,1974,1173,-6066,3282,3810,2439,-113,-1480
8812,2123,1758,-5573,3358,2197,654,-108,-1299
8812,-919,5354,-3340,7220,-9035,-17908,-1438,-1588
8812,-504,8354,-172,8808,-15561,-30000,-2383,-887
8860,2032,2991,-5568,6740,-3803,-12125,-1094,-1364
8860,1827,1109,-6474,4233,1070,-3144,-371,-1433
8860,580,-1152,-7323,2207,5870,5551,355,-1412
8860,2161,2289,-4288,4436,4439,-2021,-348,-1317
8860,991,4943,-1496,6690,-4550,-16270,-1456,-788
8860,-374,-4422,-5097,2975,10966,11249,267,-1685
8860,-497,-3479,-5750,2578,9525,10439,389,-1771
8860,82,-1908,-7032,2316,5963,7705,301,-1729
8860,1434,-343,-6897,2867,5255,5698,303,-2429
8860,2446,-266,-6845,2346,3286,4934,326,-2303
8909,281,1187,-5298,4687,2036,-1866,-349,-1616
8909,-122,-1738,-7225,2630,8387,9367,348,-1412
8909,114,-241,-5519,3508,4169,2828,108,-641
8909,1093,-1454,-8015,3842,4480,4300,127,-2425
8909,873,-832,-9128,3729,3359,3158,90,-2140
8909,3667,3130,-5171,5859,-3521,-9174,-721,-2319
8909,3229,4604,-2737,7150,-8815,-18576,-1495,-1617
8909,1957,2726,-2484,6485,-6774,-15488,-1565,-1161
8909,2535,-3574,-5536,3329,7344,8671,6,-2680
8909,1996,-3123,-4792,3251,6091,6765,-85,-2523
8958,1642,4205,-3778,7977,-8698,-19071,-1627,-1926
8958,60,3615,-3733,7562,-6811,-16769,-1622,-1855
8958,974,2172,-4378,6755,-3578,-11953,-1361,-1768
8958,-120,-5207,-4070,3877,14596,12461,-206,-2794
8958,1363,-6577,-6006,2620,18368,19085,540,-2957
8958,2259,-2652,1743,3886,10915,6279,190,-3084
8958,864,-1854,2912,4261,9401,4596,36,-2896
8958,687,-949,4118,4824,6464,885,-207,-2641
8958,1907,2769,-3156,7318,-8845,-17028,-2004,-2084
8958,206,1656,-3310,6051,-8000,-12874,-1563,-2131
9007,810,52,-4026,5549,1448,-2440,-939,-2364
9007,1147,-2258,-5697,3814,6437,7483,-141,-2789
9007,2694,68,-3221,5623,124,-2712,-670,-2466
9007,-1548,-3010,-5712,4625,3668,5186,-26,-1716
9007,904,-2506,-7696,4811,5702,4136,-301,-1519
9007,864,-3956,-6616,4183,11260,13424,-188,-2646
9007,868,-4428,-8690,4109,12643,14915,-63,-2491
9007,1454,-3254,-9449,4550,9465,9983,-246,-2146
9007,15,-1428,-6105,6163,5164,2736,-104,-3559
9007,555,-1342,-5092,6465,5396,1655,-234,-3275
9054,1433,3237,-2754,9760,-13238,-19107,-1962,-3099
9054,-103,1856,-2929,8530,-9167,-13695,-1697,-3074
9054,1419,1513,-2460,8182,-8097,-12809,-1579,-2870
9054,-408,-3089,-3177,7436,7686,3776,-322,-3881
9054,-253,-2708,-3309,5669,6822,2389,-251,-3583
9054,1031,-283,-3262,8202,6274,1545,-582,-4418
9054,1071,128,-3014,7444,4602,1234,-447,-4328
9054,3154,-2758,-1633,8337,12069,6463,-638,-4903
9054,3331,-3530,-2689,7593,14306,10508,143,-5198
9054,1839,-2475,-2490,7836,11729,5816,22,-4736
9102,2657,4217,-2054,12150,-6329,-19351,-2274,-3805
9102,2606,671,-3125,9477,1423,-6187,-1469,-3905
9102,1962,-432,-3646,8282,4696,-599,-867,-3844
9102,1940,2904,-1513,11466,-4395,-13471,-1590,-4307
9102,683,2878,-1025,11327,-3138,-14138,-1691,-4078
9102,1068,-1960,-9173,8814,2582,4132,-247,-4954
9102,-968,-1962,-8445,8420,1677,3184,-353,-4497
9102,1135,-16,-8623,10166,-288,1673,-359,-5852
9102,1779,314,-9025,10191,-1831,-282,-571,-5537
9102,1776,1940,-4685,12653,-2453,-10674,-1612,-5616
9151,-90,2980,-27,13366,2006,-12079,-1473,-5082
9151,1531,1819,-374,11694,3986,-6787,-1224,-4811
9151,1150,-1992,-3572,11353,6441,2082,-827,-6485
9151,897,-1826,-3415,10723,5423,711,-863,-6104
9151,-160,3866,-1949,13866,-3857,-14375,-2121,-5929
9151,276,3844,-1486,12243,-6615,-12612,-1691,-5946
9151,715,3899,-116,11709,-5674,-13622,-1611,-5799
9151,759,-1854,-5479,10437,5595,5400,-714,-7365
9151,810,-1727,-4317,10031,7029,4555,-532,-7039
9151,-754,-2477,-3210,10251,6949,2727,-479,-7844
9200,-613,4209,5401,14377,-5095,-21438,-2141,-7019
9200,1005,3540,5394,13046,-1988,-16874,-1925,-6851
9200,-1302,-2757,5034,9495,12049,10883,-581,-7828
9200,-1466,-2767,5978,9682,10382,7635,-543,-7407
9200,104,-2428,5123,9687,6725,3777,-795,-6878
9200,1566,-1119,-1189,10973,4900,2835,-754,-7766
9200,1199,180,-6788,11280,3508,530,-825,-7433
9200,-2061,2581,-7301,14419,-2786,-12988,-2357,-6954
9200,-1870,2675,-4889,13291,-3334,-12141,-2033,-6839
9200,272,-2011,-1976,12213,6455,3445,-698,-8163
9249,-612,124,105,12870,6089,-2208,-1631,-7770
9249,598,-1507,-476,11896,10713,4041,-1092,-7604
9249,4043,-1379,4739,13718,10116,1971,-845,-11743
9249,2613,-1034,5187,13440,8211,214,-756,-11456
9249,3305,580,2853,13081,3425,-4199,-875,-10849
9249,103,-2266,-3399,11405,6272,6172,-839,-8679
9249,251,-1209,-3967,10985,3691,4187,-883,-8152
9249,-316,-239,-2412,12720,7778,837,-1134,-8056
9249,-903,-192,-2149,12096,8393,480,-1029,-7745
9249,-100,2984,2403,14699,-4562,-14413,-2246,-9027
9299,-508,1911,-2026,12391,10020,2129,-1043,-9683
9299,843,1624,-5310,11422,8484,4614,-668,-9491
9299,-174,5855,-3836,14000,-3484,-12730,-1853,-8523
9299,-3642,-4420,-12954,10585,-2746,523,-1079,-9452
9299,-2013,-3772,-14023,10009,-4812,-279,-1049,-8767
9299,613,3313,3569,17408,-6651,-21149,-2625,-9525
9299,543,4268,-3575,14888,-13543,-20240,-2585,-9084
9299,-587,-3939,4832,13107,21805,5708,-759,-11401
9299,-1798,-2957,1356,12495,20489,4742,-440,-11096
9299,-1694,-1906,3402,12386,17267,1187,-351,-10564
9395,-1972,-123,3390,13792,2381,-2147,-1395,-12793
9395,-3356,-1234,1347,11744,-395,1991,-1010,-12496
9395,-2282,-30,439,13208,12675,1942,-870,-15128
9395,-555,1284,-550,12274,13389,1152,-906,-14206
9395,-757,2934,-2335,11278,4278,-2118,-1050,-13302
9395,-2621,-3731,7074,9522,16297,11899,-326,-15663
9395,-1139,-3125,9368,9801,17201,9708,-91,-15007
9395,-3570,-3455,15063,13253,14986,-414,-1220,-16433
9395,-1906,-1572,3793,12784,12202,-2667,-1233,-15590
9395,-1510,-1578,7520,11491,9632,-530,-871,-18010
9443,-3259,3549,14420,14432,-3756,-23171,-2932,-15901
9443,-2765,3306,13160,13652,-1660,-18934,-2717,-15254
9443,-1709,-3726,17526,11266,19611,2876,-932,-18585
9443,-2674,-3286,16725,10708,17144,2559,-1058,-17562
9443,-4316,-3515,19968,10657,10513,165,-1657,-19006
9443,-3242,-3165,19083,10691,10779,-785,-1544,-18302
9443,-1042,-2230,20037,11092,10008,-4245,-1700,-17376
9443,-1641,3599,29685,14880,777,-27589,-3666,-18609
9443,-1949,-1947,23578,10335,17434,-4046,-2047,-18274
9443,-3498,-3255,29185,8672,12492,1253,-883,-20562
9492,-2781,4173,12465,10168,-408,-9464,-1952,-20217
9492,-1445,181,15134,8057,10934,2468,-1096,-19842
9492,-910,2993,32565,10896,-3160,-15838,-2522,-20957
9492,-2608,2695,27187,10253,-142,-13761,-2307,-20292
9492,-2887,2455,23286,10605,913,-14109,-2352,-19437
9492,-1038,-2528,25616,7445,24996,5188,-339,-24207
9492,84,-1829,26281,7766,21565,1534,-488,-22356
9492,-2642,-1763,17155,7760,3613,1948,-880,-23895
9492,-3899,-2772,21325,8309,3535,884,-1033,-22360
9492,-6945,-5264,36249,8411,25771,3460,-1982,-23137
9541,-5603,-5697,46700,8125,20442,2144,-1347,-24066
9541,-4850,-5534,48173,8761,23979,1194,-1334,-22683
9541,-2996,-3364,46871,9733,18341,-1746,-1753,-24518
9541,-4307,-3428,46527,9190,22554,-1362,-1706,-23226
9541,-3166,-2379,44131,8692,23204,-2873,-1689,-22065
9541,-3219,1034,45702,9954,6036,-15913,-2636,-24222
9541,-4088,1654,47551,9805,11098,-14935,-2220,-23329
9541,-3157,-2608,40673,8094,41911,1354,-1581,-26278
9541,-3801,-2759,42093,8754,46297,-122,-1744,-24641
9541,-5317,-4726,56885,7768,54466,-963,-1514,-28500
9590,-3790,2969,70641,13066,55258,-24729,-3171,-26996
9590,-5475,2229,53687,11699,53399,-18650,-3191,-25122
9590,-4147,-2771,50141,5443,67681,7158,-748,-29216
9590,-1862,-1963,48672,5530,65705,5489,-792,-27650
9590,-2026,-790,46967,5700,55046,1791,-830,-26204
9590,-3823,2452,59430,4866,54101,1342,-760,-28623
9590,-3812,2312,53306,5400,48608,353,-915,-27073
9590,-6111,2691,71819,8079,49980,-14837,-2541,-27250
9590,-6192,2900,67824,7427,45584,-14645,-2477,-25868
9590,-2938,-3094,69371,6721,90121,4927,-748,-29128
9639,-2433,449,85529,8437,56839,-10485,-2290,-27976
9639,-2001,-2634,80420,5373,68356,4217,-988,-27150
9639,-3140,2167,87396,7536,43521,-16717,-2111,-25306
9639,-1580,2452,82694,4341,64662,2316,-112,-28906
9639,-1869,1037,80032,4370,57138,-448,-145,-27485
9639,-4621,-6997,89913,3413,63198,11495,-973,-27768
9639,-2841,-4418,82897,3295,53348,8612,-977,-26219
9639,-3239,-4746,102092,9637,49266,-1647,-2150,-27679
9639,-2507,-2727,99094,8503,43775,-2394,-1908,-26302
9639,-2266,212,92598,6544,24555,-4397,-1690,-24984
9687,-5226,1068,111293,6477,-6990,-10073,-3261,-25942
9687,-4657,-2065,101727,3592,7822,3533,-1791,-25229
9687,-3843,-3026,111395,5445,-6198,-1915,-2344,-26417
9687,-3866,-2938,103958,5260,-7003,-2742,-2396,-24807
9687,-4010,-2150,98417,5171,-11328,-6161,-2617,-23247
9687,-3312,2237,109022,5783,-20954,-3252,-2178,-25215
9687,-4113,2354,102733,5842,-22089,-4559,-2170,-23761
9687,-3917,216,113123,5708,-9480,2259,-1239,-25547
9687,-3410,-1193,106668,5272,-12166,1715,-986,-24415
9687,-4078,-5820,144465,7563,-13900,-5231,-2749,-23818
9736,-3204,4233,106934,3655,-47693,-4182,-830,-25219
9736,-1739,2945,102630,2812,-37355,-146,-588,-23862
9736,-3330,3917,143340,9841,-57230,-26636,-4343,-22048
9736,-3775,2653,137557,11025,-52471,-26049,-4468,-20326
9736,-5311,4231,138032,12524,-59624,-34134,-4933,-18710
9736,-5046,-5620,110186,1462,-18713,2219,-2197,-20745
9736,-3982,-6007,109076,2201,-21345,-428,-2288,-19526
9736,-1708,1126,118963,1494,-30604,1481,-410,-22346
9736,-1832,752,111092,1245,-33222,816,-604,-20838
9736,-5000,-6799,126926,5682,-24904,1753,-2039,-20251
9785,-5437,824,123960,6453,-23687,-10938,-2336,-20137
9785,-5510,-2925,111330,4051,-2208,1735,-1654,-19046
9785,-3634,-753,103843,4703,-17240,-5211,-1852,-17757
9785,-4774,-666,105963,2805,-15888,-502,-1842,-17891
9785,-3025,10,98699,2755,-15867,-1282,-1627,-17250
9785,-920,6579,106848,7558,-54742,-21277,-3122,-17897
9785,-3108,5442,107562,7505,-59043,-23754,-3253,-16362
9785,-1723,-914,123947,4930,-5871,1827,-1111,-18316
9785,-2161,-151,120699,4319,-6035,803,-1031,-17402
9785,-3523,851,112626,3129,-13722,-1960,-954,-16491
9833,-1528,7009,102972,4567,-68129,-20813,-2363,-16496
9833,-2013,6110,89395,3013,-56746,-14458,-2315,-15370
9833,-4637,-2238,106603,1202,-10059,6611,-488,-16605
9833,-4625,-2240,102479,1703,-3561,5022,-801,-15416
9833,-4406,-3196,101716,3271,-4076,681,-1289,-14266
9833,-6237,-3851,86458,3395,-23650,-972,-2916,-12959
9833,-4842,-4184,84412,5052,-23553,-2584,-2975,-12036
9833,-2764,1311,88776,3463,-40200,-9329,-1944,-13743
9833,-4519,-4547,81931,2471,6908,7541,-935,-13404
9833,-3471,-21,82095,2845,-19865,783,-725,-14169
9882,-1182,3312,108782,5564,-50086,-15987,-1516,-13651
9882,-1799,-268,93882,2309,-15008,611,-717,-13021
9882,-3914,3727,75376,4287,-58789,-16187,-1814,-11511
9882,-4843,2101,70121,5748,-44975,-15059,-3004,-11458
9882,-4494,1536,67228,5270,-47031,-15664,-2856,-10763
9882,-3671,-810,47230,-825,-213,6075,-1070,-11807
9882,-4734,-526,42735,-710,-3375,4919,-1273,-10973
9882,-2334,633,39143,2173,-2834,2907,-425,-12087
9882,-1125,2021,36219,1330,-6162,1168,-596,-11293
9882,-3993,-2066,38338,-404,25658,11039,-321,-11412
9931,-2300,1270,65820,9878,-32772,-16702,-2544,-10022
9931,-272,2839,49703,4359,-28641,-6885,-1350,-10354
9931,-439,5069,38262,373,-273,2678,-1352,-9528
9931,-555,3734,39285,898,315,733,-1045,-9119
9931,-1927,1222,43301,6801,-22808,-14934,-2458,-8778
9931,-3016,1478,38938,5781,-24425,-13752,-2402,-8212
9931,-1862,2980,33426,5749,-35839,-16081,-2740,-7394
9931,-4029,-5304,48679,3487,42523,7525,-577,-9098
9931,-2331,-2758,37533,3463,27016,5293,-625,-8653
9931,-1751,-1037,27344,2487,6000,3411,-1289,-8402
9979,-2102,2211,40977,7197,-51749,-15701,-2696,-7276
9979,-1620,5339,39232,7202,-71127,-20904,-2835,-6884
9979,-2582,-5309,29615,-1910,42715,18511,-828,-7403
9979,-3439,-4960,32903,-323,32252,14242,-524,-7278
9979,-2147,94,35864,6772,-5807,4413,-1025,-7933
9979,-1084,1132,30168,6522,-12124,1900,-1335,-6956
9979,-682,3400,22124,5672,-23276,-1069,-1550,-6316
9979,-2933,1745,41160,9009,-70608,-16756,-3776,-4896
9979,-4717,267,45987,9988,-61382,-17041,-3779,-4343
9979,-5228,-3170,27699,1566,-18618,5226,-1070,-6165
10027,-1122,2263,57017,6081,-65601,-13555,-2702,-5019
10027,-1367,1904,55575,5600,-45161,-9169,-2360,-4832
10027,-1734,-376,41671,4320,-6570,4622,-1191,-5446
10027,-976,1679,33833,3026,-13404,4251,-883,-5382
10027,-1759,-3374,28669,1103,7238,12107,-274,-5527
10027,-3155,-1982,26993,2125,-3156,7370,-846,-5104
10027,-3397,-1143,36867,4849,-15373,2666,-1812,-5173
10027,-1595,-1277,35796,5284,-15323,1601,-1880,-4780
10027,-1765,-1272,36502,7177,-26043,-2879,-2596,-3796
10027,-160,6771,42444,4529,-106425,-17627,-2222,-4854
10074,-4664,2878,45296,7664,-96973,-19149,-4375,-2728
10074,-1508,-4092,39694,3660,28135,7901,-1547,-4821
10074,-3610,-3999,37783,2395,16544,6859,-1685,-4289
10074,-3801,-2146,31956,3062,-5518,2320,-2479,-3510
10074,-3405,1632,28048,3924,-1110,3308,-1652,-4543
10074,-2941,2189,27742,4036,-3628,2079,-1553,-4337
10074,-2678,-1595,24616,-573,25673,9523,-1415,-4467
10074,-1553,-2008,25863,2516,7552,4900,-1669,-4139
10074,-1004,2364,26526,4327,-9943,2187,-1221,-5684
10074,238,1728,22691,4169,-9678,1564,-1382,-5335
10122,-2500,-668,34691,5587,-31523,-4588,-1722,-4062
10122,-2702,4753,39453,5651,-89760,-16917,-2814,-4060
10122,-1790,3441,37234,6081,-76560,-14390,-2997,-3579
10122,-3696,3525,37379,6806,-86798,-16376,-3185,-2979
10122,-1516,-873,25324,2169,5734,7888,-1187,-4704
10122,-3088,-834,26027,2446,1447,5500,-1090,-4411
10122,-3044,-2746,31199,5846,-1744,2316,-2002,-3953
10122,-1396,-1888,27620,5702,-3845,1649,-1902,-3525
10122,-2311,-2473,38276,6637,-34460,-5062,-2903,-3473
10122,-3303,-5508,31375,3255,27269,9247,-1385,-4112
10172,-1537,2496,6990,2667,-8534,3580,-1577,-4258
10172,-562,1314,11028,3010,-5978,3269,-1563,-3995
10172,-1140,499,21180,-381,-23497,3937,-1109,-4031
10172,-2125,373,23310,1448,-15287,2711,-1314,-3760
10172,-364,4852,29722,6117,-80675,-13647,-2891,-3540
10172,1366,4739,28990,5276,-77233,-13309,-2550,-3530
10172,-2358,-4073,20667,4942,10231,3790,-2453,-3340
10172,-2186,-1673,15830,4475,3863,2966,-2277,-3156
10172,-2800,248,21264,4746,-9591,-593,-2333,-2999
10172,-3698,-2354,22430,4686,-145,2059,-1746,-3583
10221,-2897,3510,32997,7621,-105788,-22079,-3969,-2284
10221,-2010,1554,32979,7356,-69478,-14991,-3638,-2366
10221,-2465,-890,8760,2879,22506,9921,-1337,-3716
10221,-2272,-641,9616,3005,17858,8111,-1216,-3586
10221,-1360,-600,11535,2349,-2598,3208,-1674,-3970
10221,-2826,-446,12140,2937,-7310,1361,-1877,-3514
10221,-1443,1824,12701,2388,-74402,-12233,-2779,-3643
10221,-3566,36,18349,2784,-66330,-11367,-2951,-2972
10221,-3673,-534,24901,3840,-72269,-13319,-3175,-2504
10221,-2552,-914,16979,2339,6214,5564,-936,-5319
10317,-2270,-537,17143,1123,10115,4668,-1639,-4369
10317,-3439,-207,5197,2299,3088,2949,-1994,-4491
10317,-2940,-87,5182,2004,2684,2739,-1880,-4243
10317,-1106,104,7192,1476,-6312,991,-1675,-4133
10317,-2106,-704,9111,800,-3752,2675,-1366,-4465
10317,-750,-414,9442,1169,-6071,1449,-1769,-3882
10317,-2046,-216,5743,-1498,25979,7131,-2042,-4442
10317,-975,-355,5820,1089,17153,4058,-2067,-4052
10317,-495,970,3062,3192,406,1055,-1846,-5394
10317,-562,1492,329,809,-9090,921,-1600,-5209
10366,-3225,2089,16582,1005,-56120,-10320,-2771,-4256
10366,-3217,6261,34099,8029,-145524,-32726,-4869,-3679
10366,-2809,5097,32075,7150,-115887,-26878,-4436,-3618
10366,-2358,2947,21732,5146,-63901,-14943,-3530,-3619
10366,-1809,-3849,6313,371,26280,6863,-1895,-4311
10366,-3021,-3609,8440,992,20607,5258,-1892,-3890
10366,-691,725,4041,1658,16483,4864,-1365,-5105
10366,-1107,946,1965,1893,20132,4906,-1026,-5356
10366,81,-1798,-2730,698,16545,5997,-1083,-4611
10366,197,-628,-7779,88,13799,5181,-1088,-4326
10415,-1689,2424,25079,4759,-66390,-14906,-2807,-3206
10415,-764,-255,13685,826,835,1711,-1550,-3708
10415,-1636,1687,-5133,343,8863,4139,-1365,-4103
10415,445,2504,-4479,1017,6603,2776,-1487,-4010
10415,-1156,4598,14718,4986,-114640,-24379,-4242,-2187
10415,-920,193,1901,1769,-28575,-5282,-3048,-2562
10415,-1712,-2078,1919,547,21736,5551,-1626,-3171
10415,-181,-1946,1444,338,15402,4853,-1429,-3159
10415,25,-523,-1457,119,-5507,1784,-1417,-3111
10415,-1799,-1892,6896,1622,11011,4185,-1628,-3745
10463,82,4810,11654,7411,-84394,-19571,-3585,-1733
10463,-2038,553,-22026,-1544,40423,11495,-1433,-3381
10463,-1953,139,-20081,-398,34575,9698,-1501,-3019
10463,-1567,5,-13171,183,24273,7129,-1514,-2970
10463,-420,-111,-10064,2047,11208,3431,-1601,-2544
10463,-643,754,-7916,597,8165,3046,-1564,-2237
10463,-1799,4803,4801,2754,-71054,-14419,-3393,-728
10463,-674,271,-651,121,-517,649,-2485,-1056
10463,-1257,-1423,4692,190,13071,2904,-2229,-1379
10463,-334,-1713,7679,525,11446,2252,-2130,-1369
10511,-1833,4376,2183,3713,-84046,-16843,-2724,-1321
10511,-2543,-2258,-1007,439,-3963,1743,-1796,-508
10511,-711,2432,-4309,2730,-75194,-13909,-2927,60
10511,-1074,5360,-4099,3124,-106664,-20818,-3457,164
10511,-587,-1295,23,-1598,38181,10717,-931,-1375
10511,-708,-1533,2054,-120,27035,7373,-1404,-910
10511,337,-1336,4830,1693,22380,4822,-1621,-710
10511,-1604,-638,3187,2080,17325,3726,-1664,-434
10511,-484,2421,24357,2009,-46625,-8472,-2550,284
10511,985,2875,27699,2990,-57952,-11327,-2592,380
10569,1268,-179,31116,2446,-48803,-9963,-2081,499
10569,1793,-1409,13794,-793,17362,5737,-1422,24
10569,1421,-1142,15307,-476,10510,4630,-1497,168
10569,653,-973,9213,151,4665,3331,-1885,288
10569,-587,-999,10348,752,3659,2376,-1950,358
10569,454,-120,13417,-269,-16616,-1563,-1846,434
10569,-1019,-1860,1329,-970,18318,7185,-861,929
10569,-907,-1204,5489,-552,8888,4301,-1136,1100
10569,657,-702,4747,-367,10749,3755,-985,-156
10569,-1036,-1469,9329,-447,10150,3227,-934,247
10617,1024,7791,22664,7442,-161552,-34349,-4401,3039
10617,-809,1108,20444,2580,-50303,-9102,-2600,2255
10617,-275,-1652,11277,-82,22815,6436,-1173,1379
10617,962,-1120,1700,1999,20822,4502,-1692,1852
10617,1076,-1098,4186,2584,14414,2813,-1637,1782
10617,-492,1415,5436,-106,12210,5037,-772,1529
10617,-255,898,5097,163,10792,4298,-966,1418
10617,-2534,-2373,9047,-1251,41174,10857,-945,2135
10617,-2919,-1648,8980,-693,29315,7901,-1027,2261
10617,-1322,-809,8565,390,12347,3617,-1373,2421
10666,1340,4890,12575,3791,-67789,-13700,-2009,2140
10666,-640,3450,10628,3136,-44741,-9101,-2022,2119
10666,-929,436,6283,1298,7725,2317,-1386,1761
10666,950,2921,15366,3349,-59879,-11712,-1539,1590
10666,390,5933,22760,5711,-120927,-26002,-2643,2337
10666,440,-2313,3433,-1402,25588,8715,-648,767
10666,1737,-2168,4274,-501,21469,6520,-846,838
10666,1714,-39,1055,537,22755,6657,-430,564
10666,400,309,-2228,966,22232,6099,-492,687
10666,1799,1197,-2350,1273,5226,2737,-768,771
10715,530,2432,17537,2431,-65654,-12130,-1936,1785
10715,-921,-1629,9957,-233,9488,4334,-836,1177
10715,-1248,-2084,8765,80,8105,4124,-703,1124
10715,1795,-1359,13932,2063,11121,4989,-301,877
10715,1297,-1104,12809,3140,9922,3843,-423,459
10715,2453,5271,15346,4132,-73807,-15115,-2488,2684
10715,481,6811,21072,5670,-119632,-25560,-3225,3247
10715,1885,-922,2800,-2994,17039,8223,-574,2543
10715,-2,-1809,5070,-2761,16124,7765,-553,2204
10715,1604,-1748,8191,-1054,9440,4705,-866,2070
10810,3059,960,15945,252,-1632,1537,-296,1350
10810,1254,-548,15309,729,17142,4175,-215,1564
10810,2139,270,1374,-258,1147,2741,-1020,2304
10810,364,337,6225,1000,-12088,-1245,-1354,2504
10810,1442,4244,16912,4642,-95162,-20575,-2645,3129
10810,665,-2143,12796,1635,38322,4780,-1101,2162
10810,2085,-2268,11334,1995,33392,3326,-1170,2045
10810,2407,-246,3030,840,14937,3087,-514,1641
10810,1162,247,3675,2319,2553,-141,-884,1567
10810,3583,2415,8449,2590,-50214,-11068,-1913,1916
10859,-183,1482,13312,2899,-34185,-8219,-1239,2605
10859,-1345,-1768,2406,-704,28036,7296,-273,3442
10859,1075,71,-12239,-1499,7218,3544,-404,2417
10859,79,464,-14719,-2292,3487,3211,-314,2300
10859,-108,571,-9016,-1543,-6532,-125,-491,2514
10859,1066,553,2738,2927,-16452,-3736,-747,3069
10859,2278,4326,9398,5621,-89790,-20139,-2021,3816
10859,1171,-2926,-10396,76,31367,6860,-802,3444
10859,-409,-2787,-9127,597,28305,5887,-937,3625
10859,1537,-940,-3043,-1348,17110,4428,-368,1583
10908,2274,4633,3241,4891,-88250,-20877,-3012,2761
10908,2800,2904,-2953,2698,-59532,-13723,-2496,1684
10908,2390,-4185,-9771,-974,69875,16324,1191,1216
10908,2499,-2914,-8933,-39,49556,11685,669,1942
10908,220,-1232,-7378,1221,27805,5986,-6,2454
10908,-999,-1577,-8806,955,17845,3990,-495,3578
10908,-611,-1306,-6345,1438,10971,1966,-591,3284
10908,3535,2627,-5532,1607,-38418,-7169,-1048,2526
10908,4422,6113,927,3828,-89534,-19418,-1894,2564
10908,-4126,-5001,-4778,-970,41504,9380,-164,1608
10957,-1053,2364,-955,2599,-43357,-8968,-2028,6095
10957,58,-396,-16435,-493,21269,6085,-923,4792
10957,4535,-818,-7214,702,20870,4883,-392,2191
10957,4442,-212,-7252,586,13691,3806,-412,1965
10957,3941,719,-6273,1075,-2462,17,-755,2213
10957,4001,5268,1581,2840,-77549,-16782,-1961,2641
10957,1570,949,-4575,88,-4384,-625,-1048,2707
10957,418,-2470,-4112,1160,27233,5921,-409,2792
10957,2391,-1925,-3300,157,22312,5745,-261,2941
10957,-570,4361,8849,4514,-85159,-19071,-2628,5604
11005,2584,3204,1157,1674,-52045,-10086,-1417,2976
11005,2246,2017,426,1695,-31100,-6739,-1147,2224
11005,-314,-1520,-4507,978,37481,7394,-553,3615
11005,-430,-2028,1037,1406,34523,6524,-440,3158
11005,-6,-1420,6925,2287,16378,2753,-438,2594
11005,385,150,-2904,-472,17051,5343,49,-24
11005,83,676,-3248,17,7881,3201,-66,152
11005,2477,-4241,5354,1368,68056,12229,-265,3175
11005,1827,-3363,3951,1953,54154,9196,-257,2665
11005,2839,408,-6031,871,12235,3462,-125,2806
11054,-706,424,1776,36,-9425,-48,-746,2963
11054,635,-236,-5615,-1190,9124,4670,-134,1961
11054,1045,2654,8462,2946,-50107,-10562,-1294,3887
11054,2797,2042,7708,2394,-43096,-9014,-1098,3521
11054,2324,3976,11966,4081,-86998,-18730,-1711,3512
11054,-1004,-4106,3115,575,36632,7597,0,3845
11054,-1255,-3801,2183,771,32860,6649,7,2911
11054,4690,-817,1494,2122,15419,3545,-638,1509
11054,4319,-524,1094,2299,8232,2236,-398,766
11054,8203,-604,1950,861,36239,7359,-139,2047
11103,-1213,2623,7128,3967,-61654,-12420,-1657,4148
11103,-2562,2605,6147,3705,-42250,-8936,-1865,4793
11103,-174,-1453,-904,1783,18795,3561,-670,4911
11103,-455,-450,-1095,1767,15361,3118,-456,4231
11103,-45,798,958,1988,2497,193,-331,3412
11103,3402,3660,5892,3770,-26456,-9547,-1455,2693
11103,3098,6621,11283,5839,-90800,-23075,-2119,3312
11103,3240,-1091,-4221,1525,49192,7051,-400,3515
11103,1776,-998,-3983,1824,46514,6579,-181,3012
11103,1567,1140,-9793,-110,16060,4685,170,3403
11152,3261,5587,1171,5312,-95623,-21830,-2964,6019
11152,3102,5310,-3628,4007,-81667,-17267,-2418,4942
11152,4087,3733,-5410,4409,-54847,-12334,-1785,3649
11152,3464,-2766,-12013,2175,68416,10246,-69,3998
11152,1286,-2454,-10779,1497,59252,9388,-51,4004
11152,-34,-2850,-14366,2612,45717,5575,134,3479
11152,126,-2516,-14089,2441,34310,3746,-116,4278
11152,2259,2507,-16209,3157,-25027,-7458,-388,2981
11152,4251,3866,-13490,4069,-49487,-12544,-778,3021
11152,4290,1437,-15669,2398,-5626,-3427,-631,2873
11201,4159,-276,-25673,1981,9190,-289,-1436,4381
11201,3364,-2118,-28950,717,47137,7855,-555,3808
11201,3079,1046,-23154,2669,-14837,-5021,-832,3477
11201,2280,4893,-24078,5409,-71561,-18153,-4703,7328
11201,1792,3657,-23651,3367,-47165,-12458,-4121,6956
11201,-3040,-2328,-45754,2739,49017,6937,382,5746
11201,-2580,-1770,-42503,2519,41486,3834,510,5740
11201,8367,-1707,-48180,4240,40539,5035,-544,3708
11201,5647,-1581,-45921,3324,36517,4896,-575,4691
11201,5235,-678,-42296,2896,19640,2105,-841,5512
11250,3050,1139,-55912,5074,-21812,-7782,-1213,6807
11250,1881,-2395,-57530,4009,47447,6314,-412,5746
11250,1879,-1859,-51082,3970,34304,4021,-234,5305
11250,2237,-2267,-62168,1955,34142,5739,108,4566
11250,1465,-2690,-58170,2403,30538,4429,-204,4985
11250,1684,3336,-68689,4231,-55344,-13274,-1664,4836
11250,2917,3517,-65488,3280,-55226,-12769,-1770,4644
11250,1754,-1241,-89310,-746,44937,10386,742,6481
11250,1678,-1147,-85783,-433,37913,8759,480,5757
11250,1230,-1031,-81498,550,18418,4431,-49,5695
11299,3110,5970,-91538,3562,-85836,-17226,-1015,5304
11299,543,3789,-88541,2493,-51977,-10275,-592,6430
11299,447,3282,-83368,3255,-51099,-10655,-871,7386
11299,3310,-4741,-106194,-1133,86068,17670,146,3954
11299,4346,-3870,-99375,-251,67215,13803,127,4745
11299,2085,-3048,-100904,2310,35347,6740,-500,6093
11299,2397,-2628,-95281,439,37212,6949,48,5569
11299,606,-1513,-90818,1444,26283,3392,-140,5601
11299,-1274,2990,-99718,3295,-60071,-12817,-3560,8877
11299,4889,-2619,-109159,665,34371,6174,1193,4541
11348,1900,2555,-108651,725,-25759,-3903,525,5832
11348,-2316,1588,-102722,2059,-10351,-1652,629,6593
11348,1827,1074,-117660,-1564,16216,5760,380,7515
11348,1220,182,-108627,-539,14855,4607,403,6291
11348,648,352,-99262,566,-745,891,293,6164
11348,121,-3643,-102911,-1058,59983,13146,207,6046
11348,262,-2338,-96518,-180,42695,9383,128,5526
11348,-1617,-583,-96060,611,13476,3397,-2310,11146
11348,-977,-655,-90488,2427,10536,1528,-3081,11035
11348,-3700,2575,-88116,3137,-71686,-13808,-914,9511
11396,226,1981,-87461,1478,-51643,-10522,-843,5532
11396,-278,3348,-80793,3059,-73394,-15408,-987,5090
11396,1695,-2068,-93505,1639,20855,3746,603,4947
11396,810,-1461,-88595,1685,12027,2421,661,4664
11396,3801,61,-84584,1456,-7259,-559,588,4172
11396,63,-412,-98588,1454,-76874,3686,222,4223
11396,987,37,-92924,924,-87795,2105,96,4926
11396,2519,-2428,-124073,-4610,-92611,18151,-824,5971
11396,3318,-1932,-119876,-2642,-99308,13581,-719,5927
11396,2202,-185,-134366,772,-150381,2743,-811,6336
11445,3542,5152,-127327,1624,-235070,-14827,-627,7996
11445,2005,1169,-125249,-717,-148547,696,190,7639
11445,2398,813,-123588,2844,-164783,-11529,-956,8575
11445,1879,4873,-111187,6050,-238044,-28526,-2354,7969
11445,6436,6808,-108594,5791,-220043,-21875,-1766,5051
11445,2250,-1991,-119453,-283,-45909,7674,250,5478
11445,-73,-1525,-112663,571,-52822,4318,-149,5951
11445,3059,-981,-112195,-2050,-33037,8027,-1477,8024
11445,2626,-460,-105844,-2117,-32406,7028,-1774,6861
11445,-133,-1318,-104966,-329,-8622,7277,4115,4043
11494,-711,1086,-97498,712,-50406,-1990,-548,8356
11494,-2358,-1307,-94910,-584,-3235,7130,-29,8537
11494,1269,-538,-96547,-1498,-28286,5189,-34,7115
11494,1316,-466,-91066,-1829,-27204,4886,130,7195
11494,812,52,-85636,-1172,-34732,2549,117,7652
11494,309,7063,-84384,3456,-196501,-30185,-2172,10224
11494,768,6660,-80549,3489,-184042,-28543,-2421,9739
11494,2032,-1104,-106654,-1794,-15847,8299,542,8558
11494,1264,-636,-101320,-1094,-18506,6370,284,8016
11494,-502,-472,-121099,-2583,-18021,6523,333,9836
11542,1320,4749,-109084,904,-73723,-10766,-730,9856
11542,3357,6582,-99937,2335,-99381,-18575,-1330,9339
11542,4103,-2978,-109877,-1618,43114,11993,525,8730
11542,6430,-2266,-104089,-1531,36187,10434,706,7381
11542,6894,-904,-98151,-1189,19716,6454,677,6712
11542,-2239,-486,-97071,-3102,27823,6973,1666,12185
11542,-2313,-450,-91148,-2169,21680,4971,1202,12046
11542,2072,1807,-84646,-1745,-19077,-6453,-1444,10617
11542,406,3957,-77334,-226,-55615,-15429,-2047,10655
11542,-463,-1068,-83001,-2912,40636,7811,625,9212
11591,-1145,2455,-76030,878,-19511,-8813,-802,9178
11591,-2152,-1129,-76121,-2030,32134,4812,35,10068
11591,2850,3903,-73979,601,-36573,-14759,-1335,12503
11591,872,3936,-70036,-195,-33659,-14127,-1327,12055
11591,924,3590,-66604,-508,-28589,-13390,-1164,11276
11591,873,-3102,-74686,-6372,114161,14350,4873,3384
11591,1224,-2643,-69748,-5090,106313,11375,4821,2234
11591,-1158,-1003,-74407,-973,171032,5048,392,11126
11591,246,-1278,-69823,-665,165042,4803,382,10604
11591,-205,2692,-65998,703,161936,-10744,-1784,11793
11640,-310,3096,-66306,-1986,151572,-7616,-236,10628
11640,1537,487,-63299,-2948,171456,4969,325,9718
11640,22,-1836,-61338,-3852,192869,8541,246,11167
11640,-326,-1650,-57421,-3793,181758,7670,179,10479
11640,-1125,-435,-53371,-2801,165981,3839,-56,9830
11640,3045,4654,-49709,-434,145469,-10554,-981,7255
11640,3764,4348,-47123,-858,140279,-8755,-617,6542
11640,-528,-744,-52022,-4218,175351,11093,-70,15157
11640,-960,-664,-48673,-3360,164150,8716,-92,12824
11640,-593,850,-46237,-4065,157327,6459,-552,14595
11689,859,7600,-37531,-300,109320,-13876,-1195,10063
11689,-766,5885,-36622,-1401,111909,-8673,-1290,10631
11689,-1132,4846,-35242,-1649,109954,-7725,-1530,12319
11689,-1218,-3479,-41933,-5918,164962,21963,-2936,23026
11689,126,-2286,-38736,-4693,149979,16222,-2932,18194
11689,-3238,511,-35595,-8141,150565,9990,2776,10494
11689,-1108,1325,-33247,-6966,139858,7015,2213,9274
11689,-1464,5298,-27688,-1903,125912,-8735,2706,4435
11689,-510,4336,-26246,-2081,121023,-6877,2323,5136
11689,-2429,4573,-23968,-1681,111153,-8898,1365,7102
11738,-720,-67,-26733,-4635,147421,8841,-218,12301
11738,-512,-42,-26620,-5224,136572,10124,240,10977
11738,-1512,4736,-21201,-2479,100194,-8114,-587,10456
11738,-785,1791,-24740,-5996,132561,9144,142,11276
11738,-901,1910,-23046,-5252,124385,7591,-119,10824
11738,-38,-1929,-24877,-7682,137431,16880,476,12070
11738,-1024,-952,-21908,-6383,128025,13031,262,11464
11738,461,2355,-20926,-6523,116705,7469,9,14090
11738,142,2446,-20189,-6387,107988,5827,-20,13203
11738,-693,3178,-18025,-5742,97960,1611,-104,12415
11786,1311,6123,-11543,-4182,88051,-6690,-1410,13077
11786,798,6082,-10684,-4894,82019,-6735,-1119,12521
11786,1381,2630,-13457,-7196,93389,7028,97,10845
11786,-5222,2067,-13787,-9516,94135,11944,1528,17175
11786,-2863,2291,-12614,-8302,86105,8704,804,14841
11786,-1910,2049,-11438,-6343,85150,7170,4705,14346
11786,-860,2172,-10665,-5481,79676,5949,3321,13011
11786,-8384,280,-12236,-11059,86522,15879,1989,20327
11786,-3690,1120,-10736,-9899,78132,12423,1888,17706
11786,-8159,2260,-8931,-11080,69528,10507,-5029,22684
11834,-6152,3024,-6682,-7589,58928,4503,-773,6265
11834,-5405,6116,-2811,-5270,40393,-9810,-3396,4053
11834,953,4691,-4281,-7817,34411,-3427,-371,15572
11834,610,4353,-4114,-7750,35968,-2762,-450,14698
11834,-1047,7345,-364,-4938,23754,-16577,-1443,14392
11834,-496,471,-7785,-10500,104004,13338,1303,14218
11834,849,798,-7056,-10076,96689,11419,1171,13515
11834,-618,1227,-6862,-10804,98159,11044,326,13257
11834,-483,1572,-6806,-10467,92672,10323,262,12739
11834,1107,-1004,-7545,-12674,105437,18021,1878,13962
11883,-324,1337,-1940,-10355,94099,3771,-647,14178
11883,1068,-501,-5387,-11189,96454,13059,-1212,13772
11883,5728,2905,-6056,-11744,91535,4311,-2048,14899
11883,4623,2581,-5278,-10723,86140,2171,-1245,13937
11883,4089,2888,-4100,-9455,78532,-500,-108,12634
11883,273,3616,-688,-9396,75689,1122,-2167,11618
11883,3556,7185,3074,-5550,56321,-21081,-3772,11020
11883,-3308,6,-4975,-12021,79236,9594,-979,12498
11883,-4702,56,-4526,-11067,75632,8418,-1764,9947
11883,-8846,72,-3542,-11511,77004,6603,5424,17175
11979,-3205,88,-1288,-13863,50465,8686,2760,16553
11979,-2214,-691,-2360,-14641,52352,12835,3056,16346
11979,-1598,-1454,-1869,-13467,49841,10398,1501,14041
11979,-2796,-2741,-1130,-12966,46798,9482,1228,14086
11979,1205,-934,-3154,-15100,48306,15463,2009,17645
11979,464,-956,-2625,-13934,45261,13708,86,17048
11979,-752,-476,-2057,-12518,41460,10810,-2317,14933
11979,7289,1040,-1954,-12804,37789,6264,-9233,12387
11979,8802,1701,-1636,-12131,33615,4169,-11306,11447
11979,1918,3759,2294,-11742,20744,-907,689,11319
12026,-1104,3871,3188,-10819,15999,-5263,-1,14025
12026,-435,3277,2767,-10835,16668,-3637,81,11973
12026,5604,151,-2096,-15287,26228,10868,3513,10595
12026,5202,93,-1726,-13814,24301,9087,3032,10039
12026,1176,-597,-866,-19635,21479,11961,-4254,16433
12026,2465,-80,-551,-18217,18852,9791,-4041,15147
12026,749,-4142,-4323,-19083,33795,23934,4399,20641
12026,2050,-2902,-3034,-16704,27464,18087,4902,18196
12026,-2958,-1339,-463,-16896,14561,8705,2013,18394
12026,-3414,-1132,-608,-15734,13741,8811,3216,16074
12084,664,656,855,-11848,8657,4424,3500,14582
12084,790,3238,3118,-13189,0,-3770,-9287,14623
12084,125,2530,2871,-10780,843,-4778,-5405,12115
12084,-3641,-1972,-687,-18883,8230,10410,3287,15089
12084,-5108,-1791,-623,-17851,7392,10304,2958,14105
12084,-4139,-1637,164,-17021,5903,9379,3485,13447
12084,1852,-1281,381,-14476,4232,7289,4011,11581
12084,1984,-1160,1002,-13797,2680,5561,3965,11070
