timestamp,ch1,ch2,ch3,ch4,ch5,ch6,ch7,ch8
66,0,0,0,0,0,0,0,0
66,-1930334,1882123,155440,-3402746,-1966459,1446881,274987,22735
66,-1818124,1770496,145457,-3203263,-1851471,1361726,258984,21141
66,-1712436,1666039,136759,-3014209,-1742372,1281063,243604,20019
66,-1607778,1567682,128525,-2836743,-1635604,1209035,229764,18129
66,-1514061,1475181,121283,-2668912,-1540035,1136495,216128,17088
66,-1423633,1388536,114379,-2510841,-1451620,1066692,202979,16215
66,-1340091,1305811,107276,-2361661,-1366557,1003519,190743,14748
66,-1260919,1228896,101233,-2221802,-1286882,942745,179263,13973
66,-1186591,1155857,95933,-2089269,-1208959,886404,168675,13983
114,-1116817,1089978,91390,-1963397,-1148830,823917,157591,13363
114,-1049562,1025287,85765,-1847606,-1079688,776689,148453,12497
114,-988663,961323,80303,-1742032,-997473,742581,140674,11645
114,-930579,904934,75121,-1638652,-939416,698300,132358,10793
114,-874237,851648,69696,-1541367,-889804,655826,124238,9552
114,-822303,801352,66415,-1449542,-836847,616123,116850,9030
114,-773765,752900,62849,-1366594,-785248,585227,110556,8538
114,-728042,707652,58664,-1285952,-735263,553242,104256,7589
114,-684701,666811,55450,-1208679,-694800,516952,97809,6914
114,-645849,628288,51688,-1135849,-657637,482740,91592,6554
163,-607844,592856,49901,-1068496,-627608,446524,85274,7628
163,-570473,556034,45707,-1007630,-583180,428347,81125,6767
163,-537133,525936,44091,-943859,-557226,392084,75479,6202
163,-504382,494647,41827,-887929,-523118,369303,71056,5836
163,-476304,462635,37990,-838863,-478998,359627,67789,5138
163,-447127,434878,35633,-789214,-451389,338089,63766,4908
163,-422109,409168,33686,-742005,-426346,316799,59868,4675
163,-392572,386054,31208,-698097,-402598,297870,56615,2046
163,-369243,363659,29617,-656340,-380758,278061,53016,1999
163,-353513,340048,27031,-619407,-352898,267237,50449,4382
212,-329513,321013,25548,-582186,-335829,249323,46925,3929
212,-310615,301809,24340,-547306,-314643,234589,44168,3529
212,-292251,283838,23951,-514855,-294850,218607,41313,3393
212,-274633,267248,22634,-484456,-278506,205673,38911,3134
212,-257922,253882,22026,-454221,-275438,183711,35627,3469
212,-242620,238876,20110,-427846,-259327,173668,33563,3133
212,-229297,224951,18533,-402376,-244849,162790,31535,2848
212,-215998,208701,18068,-379590,-211577,164494,30619,2557
212,-203030,196842,17009,-356611,-201647,152536,28532,2655
212,-189470,184913,15062,-336366,-191844,144159,26729,1619
261,-178888,177927,16696,-312629,-195140,120708,23830,2214
261,-169230,167931,15658,-293843,-186762,111709,22071,2315
261,-161064,152601,11985,-281601,-155264,125827,23031,1282
261,-150061,144195,11196,-265376,-147598,117503,21777,974
261,-140452,136223,11079,-247536,-140150,107227,19561,1801
261,-134225,128081,10313,-233045,-131941,100949,18316,2005
261,-127003,120785,9706,-219152,-125565,93749,17023,2074
261,-116346,115887,10460,-204348,-127654,80179,15307,2136
261,-111134,108806,9744,-192090,-119863,75660,14354,2167
261,-103664,100154,7363,-183810,-102987,81210,14701,-168
310,-98298,96119,8217,-170432,-105978,67333,12826,325
310,-91930,88123,6241,-162541,-90903,72758,12958,-126
310,-85398,83679,6292,-153590,-88293,65142,11645,-55
310,-80271,81414,7405,-141141,-93168,50059,9886,384
310,-76498,77632,7554,-131893,-92383,42831,8897,649
310,-72926,68179,4983,-128446,-64190,61987,10535,-532
310,-66596,64396,5086,-120506,-62077,57096,9784,-639
310,-63073,61034,4574,-113347,-61403,51239,8813,-1027
310,-60034,57567,4251,-106537,-57803,48211,8321,-951
310,-55313,55882,4980,-97748,-66154,36669,6932,-920
359,-53885,53251,5163,-91163,-60851,32049,6267,-1086
359,-50474,47867,3611,-89015,-49996,39378,6759,-1443
359,-45381,44720,2687,-84071,-44218,40003,6436,-1928
359,-44374,42116,2718,-80185,-42477,37046,6024,-1547
359,-41507,39943,3115,-75465,-41905,32902,5532,-1098
359,-40026,40083,6827,-64465,-48027,16712,3430,-195
359,-36143,37761,6176,-61068,-46125,15770,3180,-381
359,-33786,30783,1201,-62437,-28398,33428,5195,-1723
359,-33563,28807,1520,-58509,-27570,30598,4657,-1307
359,-30501,29003,2507,-53876,-26351,26436,4004,-1864
408,-27480,31455,4902,-46612,-40834,7332,2136,-540
408,-26097,28629,4153,-45354,-35647,10773,2239,-100
408,-26865,23577,2315,-46812,-24437,22095,3573,-946
408,-24334,19104,782,-46556,-11538,31751,4363,-1189
408,-23069,18522,1135,-42038,-11988,26767,3825,-906
408,-20557,19126,1102,-39190,-14541,20689,2928,-1532
408,-20480,18142,757,-35548,-15684,19046,2751,-1480
408,-16379,19474,1614,-32614,-21545,10050,1711,-1602
408,-16152,20641,2974,-27784,-29309,-300,641,-1300
408,-15378,14788,882,-30730,-11092,17002,2160,-1511
457,-16672,14444,418,-29531,-13562,15123,1983,-1456
457,-15740,13507,298,-27363,-11565,14512,1837,-1485
457,-13819,12582,1232,-25653,-9633,13977,2184,-2426
457,-13103,11799,1187,-23933,-8482,13076,1876,-1860
457,-11443,11362,1358,-21863,-8899,10932,1572,-1426
457,-13068,8891,91,-22372,-3999,15404,1647,-479
457,-11941,8637,228,-20659,-4804,13320,1337,-509
457,-8956,9196,1412,-18693,-2856,10782,1067,-1469
457,-8652,9056,2454,-16973,-2103,9069,932,-1254
457,-8978,12098,2500,-11592,-22927,-8388,-1205,-39
504,-8084,11143,2247,-11872,-21177,-6145,-906,-297
504,-6866,10496,2021,-11461,-19694,-5208,-803,-553
504,-6667,5654,-738,-16320,-1125,12507,651,-1339
504,-7489,5726,-693,-14880,-1896,10749,549,-1356
504,-6025,5875,-588,-13434,-1996,8792,651,-1782
504,-5807,5640,-337,-12954,-2005,8204,542,-1643
504,-6513,5464,194,-11146,-2102,6718,235,-1404
504,-5445,3523,-222,-11033,1659,11442,706,-140
504,-6697,3409,-82,-9570,728,9188,431,123
504,-5287,4149,-782,-11417,-3375,6681,195,-1041
553,-4667,6904,1334,-4545,-15946,-6544,-1079,-741
553,-3390,3453,335,-7062,-4792,4050,-282,-780
553,-2123,6115,880,-5420,-12647,-4817,-779,-1090
553,-2991,5738,727,-5067,-11670,-4214,-548,-1453
553,-3278,5569,917,-4304,-12494,-5479,-555,-1092
553,-4104,1054,808,-5344,4944,7885,147,-1707
553,-3156,1466,754,-5215,3423,6511,214,-1890
553,-2284,1749,-461,-6464,67,5742,-255,-661
553,-3096,1650,-431,-5853,218,5112,-171,-724
553,-1919,404,-21,-6913,3532,7938,-170,-987
602,-2808,2168,412,-3799,-3369,949,-869,-1808
602,-2424,599,-240,-5134,1967,6152,-232,-1861
602,-1189,726,17,-4161,1552,4376,-587,-600
602,-2231,877,138,-3728,897,3703,-601,-489
602,-1793,1494,329,-2772,-1498,1287,-728,-448
602,-1696,3142,1580,-1114,-9957,-6417,-1367,327
602,-1140,2906,1691,-747,-9427,-6373,-1275,26
602,-2567,264,-926,-4446,3332,6051,-75,59
602,-1086,322,-771,-3995,2766,5310,26,-73
602,-2184,197,469,-2251,1943,3149,-530,250
651,-297,4983,2750,367,-12536,-13241,-1635,344
651,-1075,4033,2342,-1788,-9901,-9572,-1325,277
651,-233,-1746,-891,-4089,6180,8438,94,-125
651,430,-1245,-909,-3741,5077,7413,215,-769
651,436,-346,-806,-2793,2418,4478,22,-718
651,-1202,-119,-1205,-2876,1525,4718,-424,-301
651,-184,-4,-1146,-2579,1099,4013,-426,-304
651,-2287,1948,1028,335,-10320,-6397,-1429,395
651,-2184,1946,685,181,-9908,-6144,-1367,497
651,409,-757,146,-3609,5376,4863,-309,-1454
700,-1382,-163,215,-773,-1499,619,-766,432
700,-2779,-965,-87,-1586,2997,4314,-232,385
700,658,-318,-142,-1268,2867,3617,-302,-1100
700,2257,1353,1287,1184,-1293,-2857,-672,-1508
700,2143,3975,2520,3571,-10373,-12217,-1266,-1957
700,170,-1412,-653,-3335,5405,6768,64,-138
700,-1431,-749,-564,-2555,3249,4366,-192,94
700,-615,-786,-781,-1718,3028,4248,-50,-1613
700,-1067,-616,-443,-919,2308,2850,-208,-1095
700,492,1528,664,2987,-8168,-6169,-1159,129
749,-1124,1399,898,46,-3203,-4331,-982,302
749,-11,1130,391,-3081,-3666,-2594,-898,173
749,299,2297,1081,1572,-8709,-8956,-1672,444
749,-695,-570,-672,-2186,1756,3456,-467,-64
749,-791,-844,-829,-2771,2483,4535,-172,-282
749,565,1623,242,456,-5623,-4967,-1103,63
749,-326,3261,1058,2344,-12040,-11477,-1850,248
749,2571,-2034,-1274,-486,7023,6754,32,-1468
749,2553,-1034,-1109,-508,4733,4559,37,-1383
749,-988,-983,-1458,-2296,2710,5146,-316,156
798,-186,2976,1011,3359,-12833,-13015,-2146,612
798,1128,2591,1001,2450,-10955,-10710,-1756,119
798,651,-3317,-765,-4372,10146,11780,428,96
798,505,-3815,-1276,-4295,13646,13913,657,-15
798,-1296,-511,-711,-2042,5675,5086,-541,-71
798,-1328,-388,-405,-1679,4994,3972,-687,-56
798,-732,140,89,-777,2650,1048,-905,75
798,-464,2075,439,2373,-8844,-7901,-1242,112
798,-730,2722,795,4260,-12182,-10992,-1747,349
798,983,-1484,-1465,-3145,2746,4821,-346,66
847,-808,-31,-369,909,319,79,-629,103
847,-1068,-1712,-1046,-579,5894,5969,2,-36
847,1405,-1189,-79,-110,5183,3366,-305,-204
847,54,-646,272,934,4978,1629,-554,-131
847,907,-2560,-1198,-4123,9533,11355,893,-363
847,-171,-3283,-886,-3684,11245,11246,705,-21
847,905,-2358,-263,-2020,7693,6412,180,263
847,-1831,-1266,240,-594,4033,1688,-441,58
847,-1165,-951,254,-337,3230,813,-458,65
847,300,3535,1493,3963,-10629,-12893,-1541,504
895,234,1868,1277,1730,-8345,-8453,-1137,617
895,-5,1072,1068,911,-5942,-5934,-950,608
895,-3029,-1038,-605,-1017,4301,3319,-270,1022
895,-1138,-879,-423,-731,3755,2646,-271,624
895,-389,-927,-261,-244,3522,2146,-178,-511
895,-506,-1030,-147,-15,3287,1991,-190,-409
895,-290,-808,291,630,2556,622,-374,-238
895,1293,3663,1719,3301,-12741,-12415,-1297,-41
895,2110,311,-77,-498,683,1226,37,-612
895,-831,-1275,-611,-98,2772,2762,-400,-476
943,-639,1669,1490,3916,-7334,-9118,-1450,-121
943,-525,1184,1248,1620,-6172,-6281,-1151,-290
943,1377,2070,1264,2701,-3875,-6298,-967,-836
943,1306,2097,915,1842,-3871,-5379,-735,-738
943,551,-2244,-212,-1819,7761,5809,89,-925
943,-332,-1865,82,-1149,6423,4249,2,-901
943,728,-1215,433,-439,4209,1989,-165,-871
943,1264,-1123,-501,-1291,4583,4017,-176,-1066
943,942,-564,-211,-398,3284,2221,-247,-1046
943,279,-2322,850,-2237,9674,7049,301,-1072
992,-2115,1222,-1554,722,-6586,-4550,-867,84
992,45,-1013,-1674,-1141,3425,3764,-158,-126
992,-399,-764,-913,-1138,2556,2483,-402,-870
992,925,-643,-783,-934,2090,2181,-285,-861
992,-2144,1716,1888,544,-5381,-7289,-1234,517
992,-764,1659,1665,1411,-3981,-6350,-1212,580
992,-1436,1743,1563,2033,-3654,-6262,-1245,648
992,-171,-1898,-470,-2456,6519,5591,-18,-876
992,1114,-1230,-243,-1233,5032,3382,-212,-796
992,886,-1282,-418,-3018,3188,3504,-371,-1385
1041,-115,2819,1796,4771,-10078,-12770,-1953,-193
1041,-230,2755,1913,3962,-11280,-12889,-1947,45
1041,140,-2298,-1306,-2813,10043,9606,388,-1351
1041,1134,-1873,-899,-1981,8137,7287,90,-1144
1041,1233,-1395,-358,-1152,4671,3404,-469,-1287
1041,401,-1088,-454,-1356,4100,3368,-344,-1314
1041,1561,-444,-208,-587,2096,1217,-540,-1185
1041,1377,1099,1580,1293,-5069,-6549,-1335,-428
1041,1197,1138,1382,1012,-4958,-5809,-1129,-384
1041,1431,-1259,-616,-1986,5005,4121,-521,-1256
1090,566,1107,615,127,-3446,-3864,-925,-559
1090,-349,-1593,-563,-2141,5244,5426,-73,-823
1090,-1171,-925,121,1014,3469,258,-798,-569
1090,120,1970,1871,4678,-6864,-11652,-1751,-216
1090,-113,-2511,-873,-2613,8477,8665,437,-1126
1090,1325,-2110,-721,-3104,7000,7312,377,-931
1090,144,-1306,-547,-2101,4439,4365,98,-708
1090,-1604,-1345,-514,-671,4232,3192,-437,-66
1090,-2088,-1637,-302,-349,3961,2624,-457,-75
1090,530,714,960,1315,-5038,-5717,-1204,95
1139,1362,1078,2172,3682,-4217,-8311,-1535,101
1139,780,-1350,1068,68,4120,2002,-599,-341
1139,854,-795,-642,-3864,5488,3820,-260,-682
1139,1003,-612,-691,-4091,4617,3665,-95,-702
1139,770,-240,-334,-981,2378,1431,-304,-535
1139,-493,312,677,1580,623,-1814,-786,-790
1139,-342,3034,2244,4803,-10013,-13301,-1981,-109
1139,645,-2867,-534,-643,9510,6861,137,-751
1139,640,-2235,-27,-523,7281,4598,-168,-666
1139,-935,-1107,-113,-444,6510,2882,-517,-900
1188,798,3064,1763,4005,-11449,-14115,-1910,-563
1188,768,2022,1213,2689,-7660,-9513,-1413,-675
1188,141,-1830,1004,-1357,4623,2739,-471,-769
1188,-1422,-5072,459,-3843,15619,13493,525,-1100
1188,-1402,-4399,1176,-1972,12993,9477,137,-1000
1188,-1435,-1299,-1040,-951,7348,4442,-257,-1167
1188,167,-866,-880,-333,6275,3483,-272,-1300
1188,522,823,263,1877,-164,-4343,-1373,-1194
1188,1651,2963,1641,4106,-8922,-13293,-2211,-472
1188,-884,-1297,-1344,-1876,8206,5988,30,-1816
1237,2523,-1330,-512,-790,8218,3728,-472,-2192
1237,1424,-1055,-497,-217,7920,2957,-308,-1904
1237,8,-1006,-722,-641,8917,2858,-571,-935
1237,-1099,-816,-722,259,8764,2663,-555,-866
1237,-820,-340,-418,1298,7150,870,-743,-749
1237,8,-3231,-1848,-4617,16663,11811,464,-1089
1237,-1137,-2512,-1382,-3259,14962,8931,301,-902
1237,-436,-478,-945,-2025,10404,2983,-332,-1003
1237,845,112,-1092,-1756,8108,1859,-443,-898
1237,-597,3397,1971,4727,-263,-16539,-2580,243
1285,-1119,1626,1229,1991,7642,-8767,-1731,61
1285,-1351,1266,1198,1538,8232,-6395,-1370,-117
1285,705,-856,-1004,-815,30448,4485,-309,-788
1285,1272,-595,-663,22,28352,2985,-565,-326
1285,605,-210,-117,1020,25289,387,-909,89
1285,-1471,-1056,-287,-174,39545,2718,-657,-475
1285,-1015,-644,-213,-277,36932,1839,-620,-260
1285,124,-1776,-861,180,54723,6179,-31,-238
1285,1322,-1542,-398,89,51479,5357,-119,-79
1285,390,-323,-917,-857,56659,2589,-628,-549
1334,-3250,-72,650,-446,52847,-614,-1070,540
1334,-2319,-1220,305,-1324,54438,3235,-651,619
1334,846,1089,1400,1866,51032,-6903,-1519,1059
1334,421,2216,2388,3749,44902,-12153,-1909,1230
1334,114,5507,4021,7222,32228,-24606,-2960,1790
1334,-764,-1166,-196,-2891,63914,5638,-189,331
1334,849,-440,-195,-1780,59654,3945,-324,345
1334,968,-1108,-22,-424,65127,3268,-808,525
1334,-712,-927,-95,-30,61997,3076,-747,435
1334,-1095,-1337,-167,-809,69276,5418,-267,440
1383,-718,1700,1473,2019,57477,-7862,-1739,1782
1383,-969,-659,175,-1522,62240,2172,-646,1356
1383,-675,-1291,1006,-469,66057,3486,-839,1596
1383,-1286,-888,778,-669,62511,3316,-718,1371
1383,-796,-343,800,-528,58450,2356,-672,1172
1383,-816,3674,3223,5420,47361,-14355,-2178,2679
1383,-1391,5855,4331,7180,36854,-22755,-2947,2772
1383,-242,-1363,237,1463,61351,5750,-229,1348
1383,-921,-1257,332,2117,58000,5104,-198,1238
1383,-3662,-275,-263,-809,59810,4327,-390,2324
1432,-1346,3412,2371,3639,50895,-10566,-2055,2496
1432,-665,2300,1795,2573,51793,-6660,-1615,2008
1432,-715,-1326,322,-4092,80834,10845,-204,2440
1432,-1381,-870,197,-2682,76245,9285,-178,2135
1432,-201,-145,325,-781,70692,5638,-350,1950
1432,-341,1147,241,-1836,77873,4850,10,1837
1432,-941,1326,349,-1530,73326,3768,-214,2089
1432,-910,3096,2161,2200,79031,-5841,-2247,3483
1432,219,3864,2551,3628,73421,-9734,-2590,3314
1432,-2009,2206,769,-777,110612,4842,26,806
1480,454,6189,2713,4278,101254,-9480,-1472,1865
1480,-547,3897,1567,1345,101189,-876,-726,1541
1480,3787,4813,376,-492,115131,5424,133,502
1480,2683,6322,1379,1896,104477,-2198,-655,1234
1480,158,8600,2541,4299,91260,-12175,-1701,1816
1480,-1956,1655,1200,-1052,113737,8674,-17,2236
1480,-1627,1999,1155,-908,106701,7394,-46,1974
1480,-464,3694,1126,-659,110626,5960,-402,2410
1480,-498,3721,1018,-459,104765,5411,-588,2476
1480,-1156,5740,2524,1110,108609,-4044,-1294,3437
1529,-3642,2897,2419,-1550,112534,4357,-846,3470
1529,-2266,1256,1229,-3049,110865,10731,-14,2667
1529,-227,2806,2159,-703,120322,2731,-678,1590
1529,-155,2780,2218,-452,113901,1944,-580,1611
1529,1215,3570,2225,127,106101,46,-697,1640
1529,-2197,4944,2894,2570,110196,-4941,-1441,2339
1529,-1579,5997,3468,3644,100515,-9669,-1738,2443
1529,-1302,409,1832,-2269,119878,9075,-220,2463
1529,443,809,1606,-2296,113072,8404,-86,1534
1529,-2862,851,2279,-80,119912,3585,-2463,4052
1578,-1953,5555,4592,5094,108471,-11634,-2438,4956
1578,-1872,4761,4079,3047,103016,-8933,-2076,4622
1578,-430,3817,3448,1880,99273,-5655,-1408,3477
1578,-1915,-1991,1540,-3261,120391,13764,503,1787
1578,-560,-2526,919,-2663,116160,15424,252,3432
1578,-1761,-1271,2754,-394,117247,6116,157,247
1578,309,-600,2757,604,110415,4354,-19,120
1578,-2664,3015,4764,2711,110369,-3765,-1453,2179
1578,-1157,3314,4597,2717,102981,-5841,-1552,1900
1578,-611,3167,4294,2940,97568,-6385,-1487,1754
1627,-108,-65,3812,-409,110625,5141,-423,928
1627,-34,-1364,2936,-1795,107477,11393,445,348
1627,-118,910,4023,1332,97196,1585,-302,602
1627,-39,-486,2701,-756,104731,8990,-894,1420
1627,59,-532,2930,-548,98734,6179,-928,-135
1627,-2153,-2925,2222,-3666,106086,14875,-266,2883
1627,-2296,-1924,2319,-3116,98823,11573,-459,1936
1627,-2691,-1257,4679,1486,101600,3126,-213,395
1627,-2252,-961,4519,1020,95878,2711,-190,214
1627,-719,-229,4603,1441,89664,342,-267,45
1674,-3500,2623,6438,2966,89095,-11017,-2155,163
1674,-1710,1979,5873,1422,85452,-6292,-688,-1185
1674,-1240,-2199,4597,-1585,97441,6018,-143,45
1674,-2251,-1789,4197,-1183,91745,5361,-182,-144
1674,-1945,-943,4120,-302,85561,2907,-330,-202
1674,622,-260,4411,-711,89471,4762,18,-3389
1674,-830,-310,4758,-437,84053,3534,-288,-3252
1674,877,-2623,5430,-1784,90078,10024,910,-1261
1674,1102,-2509,4537,-1518,85513,10585,932,-519
1674,-4555,-901,6096,183,83534,2890,-1527,3969
1722,-948,1787,8633,4430,74875,-10763,-2239,2358
1722,-1228,-1143,7023,1386,74990,-488,-1189,1769
1722,-3770,1225,8170,2150,71625,-5412,-3966,6613
1722,-2283,1237,7696,1585,67395,-4663,-4050,6075
1722,-1435,-2413,7005,166,74945,6931,-285,-161
1722,-2602,-2019,6558,-98,70623,5571,-1147,669
1722,-2491,-1572,6318,-305,66021,3722,-1459,2013
1722,-707,-1135,7200,651,65171,4494,-181,3641
1722,-1402,-1025,6990,650,61861,4108,-330,2714
1722,-2868,-2679,7212,-1857,63967,10396,619,1754
1771,-1691,1322,9833,3401,54732,-7192,-820,658
1771,-2760,-390,8472,934,54081,84,-112,-24
1771,-4035,-1890,8534,-141,56579,4525,607,-404
1771,-3837,-1578,8153,-1084,52815,3465,615,-415
1771,-4441,-689,7770,-604,48882,887,208,242
1771,-2143,1371,9587,1606,45657,-5967,-1322,1760
1771,-2000,1440,9396,2326,43640,-6562,-1476,1720
1771,-2832,-2064,8310,-774,49988,6208,-1360,1226
1771,-2807,-1866,7987,-785,47213,5612,-1283,1421
1771,-3250,-1090,8552,342,46119,4041,-1139,1229
1820,-1783,2936,11024,2068,36403,-12387,-2012,1815
1820,-144,2146,10200,2036,35548,-9528,-1346,1905
1820,-1030,-2929,7770,-1160,45715,13045,-556,411
1820,-443,-2176,7379,-1131,42188,11173,-3,-169
1820,-3670,-1883,9402,-1330,39914,8521,-41,4365
1820,-2248,-1759,9027,-1101,37798,7542,4,4427
1820,358,1293,10876,3084,32438,-5435,-827,2258
1820,-1350,1058,10352,2513,30736,-4872,-1354,6044
1820,-1724,1008,10107,2487,28829,-5256,-2284,8143
1820,58,-1789,8833,86,33732,7324,565,-365
1869,-706,-1731,9666,-1373,31549,5279,-587,1592
1869,-2050,-2471,8617,-1961,31228,8018,-271,1321
1869,-465,-535,9000,540,30108,4679,-60,651
1869,-529,-904,8696,-324,28086,4327,-235,5236
1869,-3567,-2957,10036,-3221,29848,8035,-1154,1097
1869,-3033,-2527,9666,-2579,28273,6638,-1493,1689
1869,-1285,-1658,9363,-2098,25491,4091,-1515,1848
1869,-789,-1289,8929,219,24644,3732,-124,1652
1869,-1056,-915,8590,149,23215,3266,-471,-1067
1869,-410,1017,11097,2425,20268,-6514,-2327,5835
1917,-503,4026,12730,5763,14623,-17985,-1541,-433
1917,-1738,453,10409,1464,18883,-3582,20,-1512
1917,24,-2508,9105,1268,24262,6388,-60,335
1917,-1461,-2618,8646,1390,22341,5107,-98,440
1917,-1261,-2315,9884,788,21491,5207,2,2283
1917,-1433,-2510,9773,1257,20846,4416,-312,3301
1917,-2964,-3853,10750,-767,23530,9648,-189,4801
1917,-1283,-4380,9175,-2126,23727,14081,609,1506
1917,-2036,-2908,8952,-740,20862,9845,258,324
1917,-1332,-1539,8650,-362,18749,4475,-291,353
2012,-2146,-1040,8847,-3192,13035,6961,-426,821
2012,-3736,-1348,9918,332,13996,292,642,1166
2012,-3832,-1397,9737,1066,12790,878,438,957
2012,-2263,-956,10393,2447,11424,819,-103,863
2012,-768,1913,10646,1345,8828,-3227,-881,673
2012,-1919,1663,10285,1528,8446,-4257,-1152,761
2012,-2254,-1591,9430,-1168,12928,5223,-1369,-311
2012,-3541,-1721,9486,564,12574,3294,-1758,-688
2012,-444,-631,9328,-1651,11071,6212,66,121
2012,-595,-276,8533,-1787,9880,6030,172,12
2061,-1618,3679,10414,3551,4780,-10671,-1707,674
2061,-2774,-3036,9600,-3551,13634,13097,-536,3122
2061,-1290,-2560,9371,-2009,12475,10088,-574,2734
2061,-2403,-1761,9663,-47,10977,6196,-1040,1609
2061,-1644,-2519,10063,-3284,9774,9643,941,-6123
2061,-190,-2126,10150,-1876,9346,5821,844,-5924
2061,-574,1588,12522,2034,6023,-3436,303,-3037
2061,-1832,1289,11832,2190,5919,-1780,406,-2158
2061,-1995,-119,10684,-2583,9096,8250,380,2160
2061,-494,-145,10395,-2377,8124,7284,611,1893
2110,-33,1488,12223,261,5417,-1296,-400,566
2110,-4063,-1756,13278,-192,9802,7538,1263,-4279
2110,-3397,-1227,12387,-128,8478,6978,1679,-2832
2110,-1793,-272,12111,998,7224,3943,1240,-1867
2110,-1446,-2980,13670,-2476,10021,11801,768,385
2110,-2134,-1980,12862,-2191,8348,9096,554,565
2110,-418,194,13299,613,8146,6049,-219,-5419
2110,-363,-102,12926,852,7554,4714,52,-6748
2110,-1883,1095,16486,3131,5045,-3017,-3992,8048
2110,-1698,752,15510,3030,5222,-2320,-2909,6388
2159,-1344,-665,12990,-629,7861,6468,1352,-2218
2159,-2651,1899,14722,-1686,7375,7375,1148,3010
2159,-1613,913,14338,-271,7071,5463,88,3555
2159,-2861,385,14098,1055,6301,2880,-820,3896
2159,-3357,-735,15753,6135,6836,2667,-657,3792
2159,-2248,-352,15829,7165,5685,-1882,-1565,4277
2159,-2878,906,12075,-3125,7236,12608,-1541,7422
2159,-3069,466,12987,-2437,6555,9566,-2332,8244
2159,215,1805,16814,-670,7222,4384,688,-2097
2159,149,2467,14723,-767,6685,3549,482,-1668
2208,-1235,822,21117,3049,-278,-6414,-430,3133
2208,-1841,-383,19623,743,987,-2309,-215,1504
2208,-2277,-885,18726,-2106,6272,9709,2749,-4091
2208,-1731,-2818,16375,-4326,8973,17786,2845,-4034
2208,-1985,-2441,18133,-2944,6410,9341,477,2025
2208,-1673,-1712,17311,-3280,5361,8227,522,1930
2208,-1531,1133,20341,1524,3087,1160,-763,834
2208,23,3357,20859,3655,-397,-7393,-1923,1636
2208,38,2647,20128,2400,0,-4960,-1856,1643
2208,-249,1335,16907,-3212,7458,10616,-2428,4700
2257,-511,1307,19421,4076,2361,-195,1842,-8728
2257,231,-2349,18125,1715,6121,8212,1500,-4973
2257,130,-739,19647,-2217,5858,11068,1125,-685
2257,-1470,-78,18365,-1719,5049,9334,141,880
2257,-616,-3777,20135,-2863,10594,18873,153,-1108
2257,-630,-2765,19836,-2198,9486,23673,807,-807
2257,-1667,588,20640,-1518,6453,13131,1492,1476
2257,-1282,1172,18644,-2412,5271,12788,1838,1316
2257,-908,1427,17471,-2842,3851,11959,1994,1713
2257,-2440,3033,21301,4051,1138,-5787,-2740,13327
2304,-1540,3455,21094,1706,197,-11981,-1309,-3788
2304,449,-2439,22807,-1962,6428,11066,363,-1539
2304,-643,-1838,21392,-1571,5552,9565,93,-1248
2304,720,-885,20442,-457,4626,6308,-436,-1787
2304,-905,1112,18436,-372,4701,7620,1318,-4891
2304,542,881,18169,171,4727,5981,809,-3514
2304,837,-662,23950,-656,4714,6067,955,-2346
2304,800,-2549,21719,-3652,7022,12854,1558,-2201
2304,48,-466,21993,334,4325,2117,1066,-940
2304,918,-332,20875,462,4261,1993,515,-518
2353,-1317,1845,23243,1119,529,-63,1306,-3915
2353,-2194,-1080,22484,2780,2065,-3865,-1012,-918
2353,-2041,-16,21687,2892,1965,-3747,-7,-98
2353,-1798,145,21385,2447,954,-4363,349,1012
2353,-114,-2334,22583,-3817,5344,9546,868,-628
2353,547,-1792,21767,-3097,5278,6978,849,-1347
2353,1074,-2031,21461,-783,4684,8366,-963,3602
2353,824,-1663,20369,706,4378,6751,-2488,5509
2353,-1417,-2031,21507,-4832,6497,17042,2361,1034
2353,-517,-2390,20567,-4216,5624,12367,1490,1140
2402,-1805,-1650,22693,174,4040,3631,-991,9785
2402,-153,-441,21385,-926,4887,6268,1270,-1049
2402,-151,-137,20420,-1994,3177,5055,875,-432
2402,-94,469,19443,-1223,2311,2530,555,-339
2402,597,2493,21180,2913,1055,5849,1063,870
2402,551,1864,21303,3179,1009,-14,104,-76
2402,1144,323,20000,553,4932,5192,852,4814
2402,38,794,17786,481,3892,3289,1298,3993
2402,1968,1628,19009,-2235,4076,7037,2011,-6035
2402,231,1040,18265,-1305,4266,5502,1100,-4696
2450,434,2338,19997,4049,-168,-10605,-2552,919
2450,-2458,-5220,20397,975,7427,4629,714,-1537
2450,-1127,-4585,20148,218,7150,3214,619,-1627
2450,-1479,-2677,19148,770,5999,480,428,-1947
2450,-2139,-2183,19249,-1254,4539,8363,80,-800
2450,-1536,-858,17654,-1154,3849,6806,238,-557
2450,-606,3745,20598,3077,648,-6071,-329,963
2450,-292,4053,19944,2647,-143,-6255,-256,1348
2450,-56,-1501,16124,-789,3932,7731,1001,-2507
2450,756,-1583,16552,-335,4416,7083,398,-649
2509,555,5433,19210,790,1706,-2335,-2136,5393
2509,648,-831,17597,-1465,4309,6653,949,-3627
2509,-1290,-1496,17593,-1463,3921,6491,500,-3830
2509,-1628,-1111,17792,-839,2843,5116,474,-3044
2509,-662,-1863,16633,-2383,6006,6579,527,3109
2509,446,-1180,15856,-2598,4781,4999,338,5844
2509,-615,240,16681,-951,4202,6336,1780,-854
2509,464,-143,15681,-540,3586,3264,1796,-433
2509,719,1785,18918,2722,342,-6604,-1210,3884
2509,-490,1856,17886,1240,508,-1395,34,2699
2558,-1618,462,18814,1609,0,-7264,-1624,5434
2558,-402,-1877,16710,-1079,3192,2479,-204,1667
2558,-26,-2013,15691,-1232,3947,4478,681,-710
2558,-726,-2199,14904,-1800,4137,5295,-371,3254
2558,-1141,-1784,14329,-1113,3775,3374,-1220,6808
2558,-2113,-3009,12813,-923,5492,11344,-2869,9054
2558,-1125,-2785,14132,-2519,4526,12188,-1441,3367
2558,-2168,-2686,15351,-3282,3131,6877,-173,-2077
2558,2154,1969,12835,1597,3917,1749,-1161,2726
2558,1577,1925,12589,1774,3072,286,-1074,2136
2605,100,4684,14292,527,-736,-19907,-5122,14297
2605,259,4550,12912,335,444,-15377,-3688,11670
2605,-977,5872,12801,2272,250,-14838,-3027,8298
2605,-783,-1554,14332,-2189,4046,6804,-28,1761
2605,1062,-890,13531,-2040,3695,5344,30,8
2605,-214,-342,16173,748,4067,1587,1329,-2434
2605,1276,361,15272,899,3691,942,1323,-2146
2605,-445,-3377,12751,-7637,6665,17029,2470,-4709
2605,-1689,-4170,12354,-6610,6891,15386,2443,-5648
2605,167,-2401,12019,-4290,4797,8184,1852,-5517
2654,-1336,-1533,14706,527,3763,1652,111,3381
2654,-929,-1735,12253,78,4245,3396,112,318
2654,493,1929,12257,3350,-189,-8742,-757,-1311
2654,608,1133,13363,1623,553,-6308,-2060,8525
2654,-1136,3207,13961,5594,-2028,-15980,-2009,5893
2654,-1012,-1782,12949,-738,3847,6187,1240,6205
2654,-2187,-1710,12333,523,4005,5193,585,3841
2654,1632,-1602,14435,279,2805,181,-380,-1524
2654,767,-175,12040,1246,2634,-379,-292,-1778
2654,-728,1461,10498,2052,1628,-3228,-178,-2269
2702,-911,1540,14435,4946,775,-8154,-653,3228
2702,104,-463,11754,603,2956,2435,340,3437
2702,-492,-934,9813,-664,3429,6042,950,1743
2702,648,-32,10813,537,2914,3465,1168,-189
2702,-434,-292,10656,641,2656,3054,1135,-61
2702,796,1013,13308,-602,-226,-6123,222,-2412
2702,-257,1142,11930,-529,0,-5544,392,-1706
2702,-141,-1076,8709,-2014,3688,4583,-1818,8880
2702,-277,-1236,7876,117,2929,678,-2920,9173
2702,123,-1730,8692,2926,2462,-4084,-3706,7647
2750,-1109,-2347,8450,694,2088,-6241,124,-3365
2750,-1631,67,9893,4380,-1176,-19950,-1466,-554
2750,-1474,637,10405,4988,-1249,-24991,-2266,1203
2750,-114,-2332,9079,-800,6542,6871,289,-1761
2750,-1248,-1622,8879,-1354,5506,10402,2235,-3214
2750,1737,-1239,10104,-701,3541,6968,1499,-4692
2750,254,-769,9755,-827,2027,5458,1517,-5063
2750,-246,177,13647,-106,20,-3800,-382,2398
2750,-1878,-254,13047,-215,482,-2934,13,2673
2750,-285,-2989,7113,716,3199,2995,371,-802
2799,977,912,8563,942,2061,-49,-391,-5173
2799,-73,-881,6842,-1426,3455,6791,716,-5562
2799,-11,806,7092,548,786,-514,511,-4732
2799,-469,-3088,12349,969,2798,837,1714,-9012
2799,610,-3360,11855,897,2627,-1083,1374,-5722
2799,-452,-1410,8954,-2089,3285,6312,2599,-676
2799,1171,-1057,8199,-1158,2236,4878,2389,-3616
2799,-513,-997,8317,-1372,2974,3108,318,-2854
2799,-819,-928,7787,-1465,2496,2593,406,-2462
2799,-376,-135,7377,-1003,1555,819,747,-1877
2846,-464,3095,10651,1742,-2273,-10821,-1015,983
2846,1098,5329,10569,2987,-5166,-17405,-1138,1068
2846,-1732,-357,6476,-430,3428,4041,-2517,10435
2846,-1306,-9,5671,125,3004,3248,-2920,8494
2846,-1492,402,5563,-931,2493,2173,-3369,7039
2846,-666,-1691,8150,-4144,2933,141,903,-2079
2846,930,-809,8468,-2933,2786,983,509,-917
2846,-1210,-846,2443,-1703,4717,8931,299,472
2846,-678,-599,3158,-533,3743,6147,-230,2476
2846,-348,-722,3560,-2222,2419,4643,1086,-4521
2894,1187,2369,7861,3418,-1548,-9816,-1308,8304
2894,221,-150,6548,-33,1217,-60,-508,4915
2894,-820,-1171,6801,-1804,-296,2999,-1904,-1012
2894,332,-190,7350,-874,186,-1815,-1195,-2706
2894,361,-886,5063,-3458,3119,-1229,-393,-3373
2894,223,-1177,4841,-1738,2941,-1797,-262,-4458
2894,460,-1123,4509,-513,2392,-1197,18,-5326
2894,-837,-1707,9966,-3911,3088,8782,107,2840
2894,979,-841,8734,-3264,2482,6037,-31,2402
2894,-1405,-3847,6041,-2038,4202,5501,1196,-1305
2943,-1613,352,4994,1062,-195,-3879,476,2893
2943,-745,-1839,3715,-1197,2445,4145,1150,3128
2943,-1645,-160,3325,-507,2165,1842,-1517,3724
2943,-1494,-928,4307,-377,2719,1874,-1586,789
2943,-247,-624,5759,-337,2066,601,-1217,-1192
2943,-465,1132,5764,2666,-527,464,374,-902
2943,-426,4069,7238,6660,-3911,-15463,-1098,1865
2943,1762,-2235,2272,-1460,1736,4516,-197,5620
2943,1162,-2166,2504,-1475,1589,3996,118,5396
2943,935,-2445,5097,-204,3584,-38,35,-1489
2992,-539,3758,7907,2844,-2493,-5959,-1029,7870
2992,538,3844,6732,-1510,-1831,-2395,-791,7507
2992,738,-1508,3155,-3037,3400,5599,18,-2440
2992,1004,-1374,2953,-1506,2208,4060,50,-2185
2992,750,-1011,3571,-236,1103,2041,25,-1797
2992,-1522,2256,1954,-1329,2460,8667,-1039,2017
2992,-953,2255,2363,-596,1961,6449,-518,1508
2992,-606,-2167,11724,3730,972,-8226,-1287,-1223
2992,1174,-3740,10819,2561,2736,-3000,-856,893
2992,-907,-2167,4131,1100,2207,-895,-195,-2279
3041,-1183,-3298,6915,126,1534,2818,180,-1682
3041,433,-3725,5732,-3466,2601,10995,767,-1754
3041,1768,3458,7236,3683,-2365,-12038,-1342,-231
3041,1214,2488,7656,2752,-839,-8887,-993,654
3041,381,2824,7632,3477,-778,-9789,-2022,5421
3041,-887,-3716,1124,-338,3116,4087,813,-2642
3041,304,-3006,1342,1270,2387,1875,581,-2460
3041,744,2769,-256,-1163,1373,2585,1247,-7622
3041,1707,2884,-19,-658,1176,2479,908,-6539
3041,-228,-1821,5297,1100,19,-6920,-310,-3977
3090,-922,655,3396,-56,-80,-5496,-1508,9541
3090,-726,-1687,1785,-2867,2375,3129,-1041,13394
3090,-1427,-3350,3505,315,3777,2552,871,-3727
3090,-1429,-3004,3391,214,3858,2431,583,-2921
3090,-364,-2773,3439,94,3108,1693,291,-2026
3090,-785,195,3481,-44,-693,-5998,-1263,2580
3090,-255,113,2140,692,-798,-7651,-1806,4768
3090,-912,-1492,1388,-698,3907,5057,109,-2551
3090,-415,-1200,1048,-531,3378,4590,820,-2612
3090,738,-2572,4467,570,2706,6195,2053,-4003
3139,-755,2031,3218,5015,-1460,-15226,-800,2743
3139,78,639,2658,3359,80,-10039,-692,3197
3139,-942,877,2412,2618,-565,-9247,-863,2735
3139,484,-1680,-834,127,4729,5201,-1820,3490
3139,-802,-1056,-596,1749,4488,2999,-1866,3932
3139,1783,-689,-511,-1886,705,113,-42,-3029
3139,718,-908,248,-990,901,-294,-126,-2207
3139,-604,-866,5003,-485,-1849,-3088,202,-4820
3139,586,-288,4021,679,-1510,1305,-384,-5305
3139,996,1106,2995,2471,-1622,1276,-872,-4522
3187,332,4421,-1019,1922,-1604,-8897,773,-3537
3187,277,2531,-1896,-1057,744,-359,853,-3316
3187,619,-1632,-375,-1843,2039,4608,2102,-5834
3187,479,-1326,-386,-1554,1768,3669,3084,-6197
3187,-457,-88,-48,-675,1279,1298,3080,-4792
3187,68,-4255,4564,-2071,5261,7581,1769,-4417
3187,-165,-2772,3576,-2362,3372,6717,1947,-5731
3187,94,-132,-234,-958,667,1217,-1387,898
3187,317,261,-474,-595,474,795,-1709,1561
3187,-2231,-3139,8280,938,-1103,-12163,-4544,9108
3234,519,-2434,5927,960,-1795,-12575,-1525,3096
3234,623,-1516,4705,1228,-1692,-10839,-1438,1323
3234,451,-3118,834,-3583,3401,6499,244,1251
3234,-817,-2286,1105,-3894,1983,5227,400,1475
3234,-1335,21,-2613,-3006,2317,5844,826,7534
3234,-81,265,-2276,-3485,1476,5683,1024,9808
3234,-879,497,-1480,-3624,71,4228,1291,9672
3234,-567,-3983,1761,-668,5999,7422,-269,-1862
3234,-1965,-4027,689,-1361,4610,5798,-902,-318
3234,-1186,-1540,9012,-819,1906,628,-99,588
3283,-251,727,848,3265,-1533,-14163,-1603,-3764
3283,1547,-995,-3111,-433,368,-3468,124,-5384
3283,459,2958,142,2744,-457,-9254,-5052,9646
3283,-355,2702,-187,1585,-1040,-7794,-4668,10333
3283,-254,-1338,147,-874,2844,3681,1520,-2992
3283,-877,-552,717,-467,2603,1310,1603,-2703
3283,-85,728,1696,440,1888,-2349,766,-2444
3283,-773,-591,462,1496,2060,-1901,-792,-6504
3283,-817,-940,857,1262,1963,-82,-445,-6964
3283,-1170,-2255,547,-3529,3383,3552,-1114,6899
3332,642,1874,1190,-1830,-1003,-1487,743,-5098
3332,29,-906,506,-2826,1889,4314,357,-2252
3332,-894,-3459,2063,-3007,1657,6847,-981,4374
3332,-1256,-613,1203,-3218,1147,3180,-2272,4193
3332,1970,2884,-2256,2497,-1160,-13829,-656,-7051
3332,82,2746,-2488,1714,-1330,-10944,-1033,-3593
3332,47,2607,-2136,-1416,1284,4569,401,1111
3332,1453,2271,-2685,-406,1046,3191,500,153
3332,1097,854,-2381,-70,910,1946,570,1722
3332,-175,-5083,3636,-2360,2105,-2343,2545,-9003
3380,829,952,1112,1836,-1278,-5878,-2891,-118
3380,-1493,1792,2721,2552,-3005,-13300,-3434,1083
3380,-1575,-1678,198,-4710,3779,3981,1914,-1118
3380,-358,-3240,2068,-3879,3731,2618,1573,-1241
3380,-1015,-1521,827,-1625,1128,714,-598,-1590
3380,-664,-1049,537,-772,1399,-475,-757,-2263
3380,-256,-344,4887,3514,38,-9279,-1722,1313
3380,-1414,59,5650,3149,61,-8794,-843,1957
3380,-1143,1022,5320,3743,-663,-9947,-190,4971
3380,1601,356,-1765,-743,2048,4074,-1515,-1246
3429,-2661,-3145,-1035,-1567,1702,1117,-1450,746
3429,-2193,-2436,-1396,-1900,2218,2136,-1912,3278
3429,-1367,-2072,-195,-2753,1868,5687,1025,445
3429,-919,-1650,151,-1634,1786,4037,728,-335
3429,415,-3196,3295,-1366,4047,11039,627,-2408
3429,-1049,-3248,4941,-2391,3533,9905,217,-2579
3429,-1834,-1511,-2078,-15,1458,-14084,-1585,-98
3429,-175,-1507,-1584,699,844,-13795,-1594,108
3429,334,-422,-869,1858,7,-12738,-1453,257
3429,941,3661,-555,815,-1445,-5773,-1954,10023
3478,-331,-1716,4139,3077,77,-3887,-454,-5531
3478,391,-1928,1937,668,1962,2581,157,-6752
3478,-1667,-1891,724,-2067,2349,6449,-958,4584
3478,-34,-629,-944,-1455,1905,5403,-507,2534
3478,291,2666,-4481,-812,1729,2239,713,-6045
3478,1646,3023,-4428,-1639,617,1387,597,-6046
3478,-489,-2069,875,-454,3930,4795,489,-2381
3478,-380,-1565,680,-219,3168,3395,-188,-819
3478,836,-586,431,438,2117,-228,-1471,895
3478,-1620,-2495,368,-3786,1319,7447,470,-788
3527,-1910,3246,912,2902,-3199,-14310,-1720,1891
3527,-2026,2097,706,1228,-2552,-10471,-1285,1447
3527,-267,3641,1074,3480,-4088,-15837,651,-1658
3527,-280,1560,1518,2237,-2409,-11524,-925,3433
3527,60,-2039,-1146,-1298,3357,7201,309,-2443
3527,-1042,-1854,-1410,-552,3392,4619,-193,-4234
3527,378,492,-2814,-2709,1447,5255,-243,-1101
3527,-704,732,-2779,-2036,924,4188,-434,650
3527,134,861,-2149,-521,639,1196,-598,1475
3527,700,-2468,1219,-1666,2292,3141,451,-2536
3577,-1260,1989,17,309,-113,-1707,-141,-1872
3577,-204,2253,-227,-608,-339,-1052,719,-4717
3577,-2268,-1973,-1331,-6509,2482,18041,709,3136
3577,-1169,-1791,-914,-8052,2268,12286,58,3768
3577,310,-3400,-1813,-3901,3590,7178,1229,-5412
3577,-996,-3991,-2318,-3973,4405,9402,1345,-6855
3577,-1363,-3012,-1483,-2378,3369,4995,654,-7470
3577,-1835,-1459,-1923,1055,2301,495,-1147,2322
3577,-1620,-901,-2202,436,1743,525,-2380,4359
3577,-195,1296,1411,3300,-1400,-12997,-1313,-1596
3624,-603,3549,2155,2521,-640,-12775,-1673,-4395
3624,208,2430,1918,415,-786,-8975,-1239,-2707
3624,1398,-723,-2190,-1586,2048,5221,2073,-3035
3624,1032,-287,-2397,-1022,2002,3715,1465,-1816
3624,-574,1,-3040,-143,1805,-5977,-3603,-3191
3624,-1010,148,-4629,161,1394,-5394,-2767,-3904
3624,-651,-3033,804,-2546,2149,3950,-588,527
3624,-1236,-5187,296,-2617,3773,7825,-374,-678
3624,-1892,-4471,618,-442,2588,3280,-1084,446
3624,-2508,-84,-2222,-299,1398,4307,794,790
3672,-671,2258,302,1642,-1948,-7123,459,-2970
3672,-1803,839,110,-1484,-120,876,510,-1954
3672,-995,2879,-516,2720,-453,-9931,-886,2608
3672,-1934,3166,-984,1528,-1871,-10023,-795,3143
3672,-1872,-909,-4436,-2659,1257,4334,-1612,509
3672,-1925,-1800,-2924,-2040,1678,3292,-1487,-1353
3672,-1712,-1237,-231,243,2903,194,-806,793
3672,-1276,-1110,596,-143,2769,740,184,588
3672,557,-240,555,-828,1445,319,688,474
3672,-600,2410,-5087,-3204,2956,4283,-3499,11434
3721,-525,-1826,2349,1801,-342,-15782,-2617,8580
3721,-2660,-993,632,2841,1192,-2648,-2377,-71
3721,831,-128,-2714,-2686,1185,2526,258,-4649
3721,-1161,177,-2549,-1008,1320,348,-25,-3215
3721,-1563,2926,-532,4624,-1127,-10142,-157,-75
3721,-1156,2441,-267,3275,-994,-7138,-128,7
3721,-1922,-2284,-660,-3871,3558,4063,469,-3293
3721,503,-1321,-1149,-2868,3018,2570,565,-3877
3721,1301,-341,-1133,-1413,2228,117,415,-3762
3721,2473,24,-3558,1551,888,355,1447,-2836
3770,-5298,3637,599,115,-2274,-11154,1140,8094
3770,-4176,3517,328,-663,-1390,-7145,736,10439
3770,90,-1219,-2822,-2831,3701,4969,-1812,-619
3770,-36,-637,-2134,-2587,3006,3672,-1147,-589
3770,-1110,-2857,-384,-705,2391,3355,112,-4547
3770,-2177,-3097,-345,-772,1821,2583,332,-3959
3770,-278,3404,732,1827,-597,-5807,-1030,-5307
3770,-1393,2384,992,1431,-246,-5511,-521,-4525
3770,-568,2024,1407,2099,-303,-8120,-249,-3659
3770,-2885,-3116,-1326,-1051,2118,4001,-287,-410
3819,-2146,1853,-2226,-2373,-244,-1360,427,-1429
3819,-1465,539,-3080,-4653,897,5394,1694,-662
3819,-942,-1658,-788,-2128,2897,3798,291,-2782
3819,-2171,-1182,-776,-1942,2653,3413,190,-2334
3819,-1737,-2507,1657,-1732,4891,6940,-2377,4665
3819,-339,-915,339,-510,4027,4837,-1872,4939
3819,-1308,499,-1016,991,2889,1748,-1174,6976
3819,-2753,-2311,-1805,594,1193,1034,112,-4476
3819,-1399,-1611,-1396,1714,1317,-44,-1202,-1176
3819,-602,4253,-3312,237,-1946,-6592,164,-166
3866,-693,5573,324,4894,-3756,-24560,-3987,-1912
3866,-1196,-3142,-166,-2241,2321,4700,268,-772
3866,-1327,-2531,542,-1969,2102,4150,173,-1142
3866,-2166,-1505,1004,-1343,1252,2491,112,-1843
3866,-754,-1396,-4692,-3191,1037,-5751,738,-4137
3866,-1014,-1289,-4648,-2258,1310,-4973,-13,-2507
3866,-2351,-3951,-464,-4766,4063,9400,1291,5498
3866,-1288,-2236,-1050,-2971,2639,3895,593,5287
3866,-3187,-3435,1125,-873,2515,2521,412,-5325
3866,-1337,-2982,850,-988,2528,2409,614,-7529
3914,-2432,1090,2266,3043,-1115,-11581,40,-8881
3914,-2027,8044,-5119,1299,-608,-6817,-4676,3526
3914,-2330,5876,-3737,927,-463,-7317,-3087,3481
3914,-2345,3617,-2105,1596,-1144,-10357,-1951,2581
3914,177,-1941,-2804,-1601,3021,3380,1141,-6213
3914,-1123,-1176,-2598,-1476,2038,2339,1374,-6490
3914,-1827,-3438,1914,-845,1856,3929,-2976,17434
3914,-1138,-4167,4542,-18,2340,1850,-3592,15991
3914,-1100,-2825,-2453,-3070,2430,6709,377,-5552
3914,-1270,-2405,-2242,-3268,1428,3764,-107,-6903
3962,-208,-1466,-294,98,1267,-2523,-226,-10336
3962,-1952,-298,-4522,-142,1870,2019,-384,441
3962,-404,140,-3677,254,1706,1110,-333,-1198
3962,-568,1044,-2441,577,855,-1085,-66,-2844
3962,-1689,3421,-355,2260,-1478,-9856,-3299,1714
3962,-1304,2245,-336,1764,-1160,-8778,-2775,1531
3962,-563,561,-2995,-3066,1216,4908,1732,-4166
3962,-1214,422,-1943,-2493,994,5216,1090,-2853
3962,-940,-1072,-1508,-629,1478,968,1145,-3342
3962,-1154,-1944,-381,192,2014,556,287,-2768
4020,-752,208,235,322,1109,-2792,-362,-2276
4020,-2267,-5134,-396,-1821,4776,7405,1022,-7547
4020,-2150,-4468,-46,-2140,4185,6750,218,-6696
4020,-519,2091,-3107,-223,2712,82,-2350,-1328
4020,517,2665,-3353,298,2146,-1307,-2630,-260
4020,-3399,1534,-3244,2419,-1945,-12319,-1204,-2007
4020,-3318,1255,-2016,2079,-1354,-10297,-741,-1872
4020,-92,-1624,-92,-2191,2151,4482,1181,1399
4020,1272,-1772,277,-2558,1638,4738,978,1074
4020,106,-1466,523,-2215,992,3422,566,677
4069,-2211,1883,496,5141,-3200,-18680,-2565,1695
4069,-2924,1249,665,3014,-1485,-12040,-1799,1199
4069,-1399,1672,306,1933,-768,-9189,-1264,-406
4069,-2320,-3185,-513,-1748,4943,2603,-943,-753
4069,-2521,-4142,577,-843,4522,549,-794,-4571
4069,-2212,-2247,472,566,3480,218,-2107,-153
4069,-910,-1341,653,376,2969,-168,-1805,-1052
4069,-1688,-189,565,222,1701,-1461,-1612,-1935
4069,-1773,1362,1013,-67,-1206,-6409,-701,-952
4069,-404,1865,1099,53,-1411,-7627,-429,-1472
4117,-5292,1991,-1204,659,-1313,-6319,304,-776
4117,-4425,1530,-1401,-147,-673,-4818,135,-1509
4117,-4553,-607,-1880,-1609,1804,1723,336,-1794
4117,-3146,-692,-2470,-2515,1976,6121,961,-1963
4117,-2542,-80,-2705,-1866,1444,4798,986,-1417
4117,-2311,-4567,-1382,-3983,4773,12455,1559,-2456
4117,-781,-3905,-977,-2685,4449,11250,206,3905
4117,-2090,-2267,948,-2042,1165,7157,800,-1630
4117,-1803,-1351,1030,-2100,747,5473,45,-22
4117,-799,-127,651,-961,10,1601,-617,973
4165,-1696,2735,-4704,2310,-2372,-9543,-40,-2817
4165,-2587,3087,-3472,1950,-1362,-7577,168,-2487
4165,-1979,6413,-372,5873,-3806,-19297,-1015,-1375
4165,-2470,-4140,425,-1711,3080,2383,669,-1312
4165,-1061,-2737,158,-960,2457,588,232,-1176
4165,-37,-896,285,-2716,2622,8989,837,-652
4165,191,-633,600,-3157,2183,4867,124,263
4165,-1075,-2032,-1923,-3712,3786,6181,-402,2338
4165,-2300,-2046,-1315,-3630,3126,3421,-803,1481
4165,-2163,-1794,-940,-2680,2466,1329,-1836,1185
4214,-2464,1884,898,2537,-715,-8893,-48,-6173
4214,1145,-159,-1125,704,2454,481,-910,-983
4214,1969,3939,-87,4543,-1240,-12733,-2659,589
4214,-2600,294,89,1297,-735,-7087,-966,-604
4214,-1338,3424,1347,5799,-3028,-18924,-1767,578
4214,899,-2624,36,-1309,3553,4718,1002,-1574
4214,479,-1949,30,-2009,2322,4613,1006,-916
4214,437,-235,-2761,-2573,1419,6654,629,-978
4214,-185,-317,-2346,-1930,1612,5784,762,-507
4214,-1543,57,-1711,-969,1290,2880,817,-613
4263,-2069,4421,-1773,631,-1325,-7179,-483,-4529
4263,-727,1009,-644,-1841,1029,212,-51,-5187
4263,-1710,-1510,-160,-2525,2446,4525,293,-5226
4263,-2512,865,-3404,-900,1547,-982,1191,-9081
4263,-1921,1404,-3271,81,619,-1849,1374,-10234
4263,-2039,1907,1417,2692,-446,-12320,-2074,2029
4263,-413,4541,3673,6273,-3007,-22564,-2686,1357
4263,-2724,-2006,-2896,-1527,3192,4745,309,1436
4263,-1636,-2197,-2392,-1909,2856,4547,156,1817
4263,-1994,-1904,-2038,-1725,2095,3064,-76,1704
4312,-760,4452,1115,2999,-2195,-12272,-2080,847
4312,-553,4120,-716,1550,-1352,-7994,-1790,8
4312,-2867,3642,-1892,975,-1054,-5968,-1728,286
4312,704,-1651,-2599,-2791,3115,7217,1976,-11917
4312,468,-1426,-2369,-2336,2702,6038,1533,-12238
4312,-3128,-1519,-3898,1640,2603,-335,-748,7560
4312,-1138,-596,-4946,1400,1565,2006,-623,8991
4312,-731,634,-5374,621,894,4855,-593,8988
4312,-3091,-5265,1452,-2110,3163,2745,-1082,179
4312,-3809,-4839,869,-1416,3640,4293,-634,309
4361,-890,-591,-601,-924,2473,646,539,228
4361,-1137,-1005,-796,-451,2866,2604,43,123
4361,-1698,2640,476,3554,-689,-8934,-1436,388
4361,-2208,4092,1538,2568,-1536,-9502,-1954,2560
4361,-1158,3246,737,1805,-578,-7363,-1262,502
4361,-2830,-1606,-1627,-3229,3146,6356,-135,10541
4361,-1843,-675,-1515,-2448,2754,5673,804,6275
4361,-2573,223,-1132,-1804,1954,3635,924,3970
4361,-4348,-3086,1225,-6061,1759,7072,424,-3993
4361,-3866,-2801,1988,-5237,1947,8111,1249,-6399
4410,-1608,437,-601,247,603,-4012,-55,-3056
4410,-653,-2152,-1200,-1793,2900,3982,1043,-3189
4410,-788,-1469,-71,450,1610,-1461,827,-2686
4410,-2835,-1860,-3988,-2615,2268,897,-547,106
4410,-2352,-1433,-2270,-2430,2343,-1217,-515,-381
4410,-1779,2913,574,-180,-1733,-8577,-548,-2549
4410,-2561,2348,128,-735,-1145,-5920,487,-5124
4410,-1163,2275,106,-8,-1140,-6228,604,-6688
4410,-927,-1780,-1062,-109,3694,3786,153,-128
4410,-1026,-1174,-545,219,2901,1692,14,-21
4459,-1619,4288,905,5778,-1508,-19145,-1302,-1860
4459,-2225,3519,-80,3516,-1339,-15421,-524,-2529
4459,-518,2753,-908,2557,-430,-11575,-313,-2677
4459,-274,-3412,-1922,-1640,4722,10206,52,-614
4459,1574,-2485,-1824,-1773,3575,8503,-594,2936
4459,-643,-169,-599,-155,3699,4658,957,-4982
4459,175,-809,260,-598,3292,5037,1176,-3490
4459,-219,-894,665,-1166,1990,2954,1063,-1854
4459,-3544,41,-6937,1368,-426,-14969,-924,-2668
4459,-3998,-834,-4635,2559,-139,-13685,-1395,-1985
4508,-2190,902,-1716,-1061,1862,1925,198,-619
4508,-2254,-702,-1699,-1702,3080,5779,622,-673
4508,-840,1376,191,2073,952,-4245,-187,-129
4508,-3072,-1474,-1825,-2193,2472,14330,2036,-3525
4508,-1111,-765,-2125,-1778,2041,9775,1736,-2567
4508,-79,-1435,-2431,-131,4327,6806,1636,-2532
4508,-64,-2174,-1911,-370,3634,5946,940,-1797
4508,-1258,-2842,-1202,-102,2640,3190,-261,-750
4508,704,-1753,-690,-897,2028,929,-234,2988
4508,492,-1823,390,156,2763,91,826,1010
4555,-1096,1192,2082,2498,-710,-11891,-574,977
4555,-1354,684,1462,1432,3,-8079,61,1553
4555,-2364,810,1468,1576,52,-7470,-108,2487
4555,-2800,276,-2900,-963,2728,2502,-523,-406
4555,-2387,539,-2835,-533,2660,1803,-978,107
4555,43,-1317,-2030,-1257,1466,1150,-377,-1554
4555,-59,-592,-2826,-695,1627,435,-638,-1109
4555,-4341,-3520,-1782,-3505,3802,8249,-55,917
4555,-2809,-4109,-1992,-3225,4797,10519,-80,1273
4555,-2965,-2633,-1502,-1730,3558,6283,-675,1814
4604,-4538,1777,-965,-200,596,819,-1808,5262
4604,-5118,-310,-2610,-1528,2309,6806,-1749,11972
4604,-4129,389,-1371,1386,360,-1506,-3747,20475
4604,-1458,899,1252,-861,16,-1425,219,-4202
4604,175,3520,1975,1647,-2543,-12514,-962,-3496
4604,-2424,-1913,-493,-225,3515,656,350,-7298
4604,-2017,-934,-1243,-31,2753,-767,329,-6184
4604,-1863,-2377,-64,-658,1931,1088,5,-4047
4604,-3252,-2826,32,-419,1806,541,87,-4325
4604,-1658,-2009,128,138,991,-1626,169,-4336
4652,-1852,5940,-1009,2895,-803,-8836,-890,-2515
4652,-1292,4759,-891,945,344,-4748,-594,-2330
4652,252,2725,-1306,-794,2254,762,-62,-1875
4652,220,1114,-3475,-603,1677,1976,2512,-4606
4652,-620,1421,-3205,-569,1193,2018,2120,-9043
4652,-1211,2128,-1209,1047,-1434,-9774,-1005,4330
4652,-2048,2584,-1172,870,-1426,-9513,-1251,4349
4652,-442,-2650,-265,-2223,2323,2647,-420,-3211
4652,-38,-2404,-193,-1954,1965,477,-297,-122
4652,-3378,-2148,630,-714,1699,-1357,-132,2705
4701,643,5584,-501,4773,-2468,-14733,-1030,-1863
4701,-622,2977,-29,3869,-1199,-10654,-586,-1814
4701,-213,-637,1388,3469,711,-7437,-259,-2002
4701,-3022,-10513,928,2031,5674,1076,-3224,9766
4701,-2809,-11172,1725,2184,4711,2260,-4025,10282
4701,-182,-2098,971,-2212,2893,4285,-1443,-8787
4701,-1686,-1867,991,-2417,2952,3930,-1956,-6176
4701,-719,-1003,-1465,-206,-436,-6844,-860,3870
4701,-830,-707,-1955,-383,-438,-6126,-1898,3171
4701,-1619,644,-1256,957,-915,-8506,-2833,2273
4749,499,1925,-1647,-74,349,-2647,1052,-5509
4749,238,2779,-712,569,35,-5495,322,-2583
4749,-1480,327,-1788,-1694,3107,4440,-35,1633
4749,-909,-93,1761,-1464,2567,3304,277,-3746
4749,-2177,-634,1247,95,2335,2793,-29,-3729
4749,-3135,-3714,-1763,-772,3811,7296,949,-130
4749,-1488,-2200,-3059,-1149,2960,6268,813,-1832
4749,-3369,-3426,1742,-377,3318,2773,-648,12045
4749,-1542,-3212,-1116,-564,2976,2582,-315,8760
4749,-1152,-2802,-3223,-446,2006,1482,344,3950
4798,-547,2664,-1034,1651,-391,-6921,1079,5652
4798,-1092,437,-1926,-812,2257,1692,1355,5400
4798,-2471,-212,-1836,-912,3177,4203,1589,3354
4798,-310,-1932,-6326,-196,3307,7022,-561,-1839
4798,-381,-3290,-5150,331,2884,5234,488,-4052
4798,-1747,-626,-800,-4566,1542,10029,2119,-7939
4798,-1312,455,-986,-2261,963,4064,1148,-7411
4798,2042,3747,-6982,-1886,3030,6663,1039,-3145
4798,1325,3612,-6124,-1684,3001,5851,1155,-2873
4798,-885,2952,-3882,-975,2651,2981,1052,-2155
4847,-1389,5789,1108,6674,-2495,-13598,-117,-8898
4847,-1820,4420,342,4515,-1491,-10478,-1412,-6176
4847,-2016,2438,221,3185,-456,-10301,-2610,-2868
4847,-2797,233,135,1769,-273,-8396,-1666,651
4847,-1319,-4412,-2894,-3453,4785,10836,504,-312
4847,-2303,-69,-4012,-2240,3042,4498,999,997
4847,-2114,549,-3015,-1468,2039,1959,-915,8167
4847,-3525,-1881,229,-1703,2307,388,726,-3719
4847,-3471,-1422,457,-595,2012,-1794,-158,-3020
4847,0,-7,1500,-3333,2524,15670,1913,-2854
4896,-5052,2205,-3209,1610,-985,-9364,-363,-60
4896,-3606,237,-5347,-1440,1260,941,834,197
4896,1620,-3024,511,-2290,2740,5953,-2159,3396
4896,1095,-2630,598,-1726,2422,3280,-2435,1215
4896,2318,-1490,754,-465,1535,-307,-2084,-1672
4896,-2980,1216,264,-348,280,-5602,-1702,1595
4896,-2144,-3582,-1820,-4115,4681,10442,-653,3304
4896,-4306,-1860,-637,109,3396,1187,-327,667
4896,-4041,-1383,-392,146,2754,467,-199,607
4896,-1304,-432,-806,-909,1711,663,432,-2069
4944,1964,3152,448,998,-1598,-9122,472,-623
4944,1113,3414,257,1044,-1571,-8990,405,-503
4944,3486,-1113,-1640,-841,2786,3970,818,-3716
4944,4072,-773,-1400,-232,2990,3231,904,-4139
4944,5720,-15,-1021,223,2532,1238,1055,-4532
4944,-4852,-3123,-489,-1972,2022,2564,770,467
4944,-5393,-2625,-186,-440,2349,1019,481,288
4944,-2220,-1675,-1490,-1910,2947,4553,957,-83
4944,-2406,-1459,-1284,-1521,2651,3410,847,-105
4944,-4386,162,-1435,-1201,1448,1878,978,-243
4992,-5300,970,703,883,1018,-3163,20,851
4992,-3503,2710,1793,2875,-1256,-11416,-928,910
4992,-5033,3160,151,2801,-938,-11794,-1313,2229
4992,-4295,1831,278,2030,-739,-9898,-1138,1656
4992,-7466,-2566,-1095,-774,3368,3497,-356,1100
4992,-6514,-2009,-941,-404,2842,2184,-150,815
4992,-3881,-857,-810,121,1875,94,50,158
4992,-417,-522,-1264,-783,1946,620,-576,-290
4992,-1758,-371,-987,-696,1578,36,-422,-401
4992,3139,2738,1637,1999,-2071,-13289,-1597,-1166
5041,2713,-138,-1241,157,2136,816,23,-2401
5041,304,-1541,-1893,-1458,3037,5670,370,-1310
5041,-1539,-1461,-993,-1635,1945,2966,412,-1097
5041,-1689,-1151,-815,-1013,1744,1763,313,-1124
5041,-1386,1070,526,2034,-574,-9482,-2045,-1312
5041,-1171,804,224,1304,-697,-8073,-1568,-738
5041,805,1086,426,1620,-1153,-9279,-1495,112
5041,773,-1211,-3198,-2226,2020,4816,-662,-626
5041,1412,-2296,-2393,-1587,2081,3428,-1319,254
5041,-973,-1711,-823,317,3082,1774,-3138,-434
5090,278,3627,2038,1135,-1749,-14256,-1603,1874
5090,-41,3263,1017,-451,-1922,-10310,-1349,2807
5090,796,-228,-3773,-2185,4627,7622,442,-4822
5090,1145,-127,-3315,-2162,3488,6188,422,-4663
5090,2135,292,-2383,-1419,2287,2989,-36,-3439
5090,2966,-1436,-2333,-2443,2069,3803,299,-1420
5090,2288,-1458,-1872,-1673,1980,2525,151,-1364
5090,-1085,690,-226,1039,-825,-8416,-1203,-587
5090,-347,1120,19,1955,-675,-9357,-1225,-420
5090,2060,-586,-2402,-885,2259,2732,19,-2258
5139,-3464,-1380,-1058,-2239,511,1134,23,-1424
5139,-923,-735,-2216,-2255,2162,4115,271,-1287
5139,-61,-195,-2987,-758,1984,3228,385,-2256
5139,1290,-195,-2650,-331,1663,2705,396,-2000
5139,1025,-758,-1627,619,1580,859,98,-1526
5139,1792,-1268,-2198,-154,3197,3965,366,-1633
5139,-809,-1908,-754,360,2153,1127,-50,-1050
5139,2924,-638,-1918,259,2294,1540,244,-4262
5139,3417,-541,-1668,633,2166,822,266,-4291
5139,-6152,527,617,3593,-163,-9786,-1361,1655
5188,1097,1557,-1100,327,-319,-4972,592,-1932
5188,209,1248,-1407,-1169,-778,-3189,709,-2102
5188,-936,-1052,-2211,-1201,2243,3068,754,-1664
5188,-732,-1812,-1465,-313,2732,1815,116,-1408
5188,-446,-1944,-599,750,2259,-887,-346,-1271
5188,1033,-55,-2424,1557,4045,1632,661,-1639
5188,881,197,-2274,-322,3687,1951,818,-1295
5188,-3203,-2195,-3194,1271,3376,3488,404,-1116
5188,-1895,-1544,-2977,1875,2791,2234,352,-1095
5188,3386,-89,-2286,-2370,1463,1966,705,-2950
5237,-4575,2573,705,3066,-1602,-15046,-1212,-574
5237,-1991,2324,313,1207,-1541,-12242,-919,-958
5237,-429,3242,342,2507,-1146,-13656,-481,-2527
5237,60,-1006,-2106,-2076,3649,4537,1287,-2608
5237,-1528,-3061,-3121,-2720,6445,12078,2080,-2304
5237,1887,-1101,-1716,-2424,4740,3449,688,-3972
5237,1324,-161,-2172,-3818,2249,2596,899,-3572
5237,-591,-563,-3261,-3155,-935,3290,1054,-4336
5237,-331,-486,-2827,-2977,-946,3347,1604,-4096
5237,1098,-1307,-2401,-1184,2802,3031,7257,-3653
5286,-2289,346,-2184,-139,803,-1892,-2540,-1804
5286,-2548,-1679,-2718,-1575,2551,3672,-1716,-1340
5286,-3406,-390,-1086,1469,860,-4645,-2147,-522
5286,1215,-505,-3399,-1819,1210,1831,706,-3172
5286,471,-416,-3155,-1519,1278,1040,551,-2366
5286,497,-1519,-5178,-3859,1407,8562,1606,-3315
5286,1516,-929,-4446,-4044,1061,6438,1434,-3079
5286,1331,560,-4716,-2182,512,565,697,-2861
5286,1187,863,-4761,-2140,240,499,688,-2724
5286,-179,1281,-4050,-1277,148,-1784,362,-2342
5334,-522,1764,-2609,2524,-1587,-11925,-622,-1961
5334,-856,985,-2180,1207,-1323,-9055,-171,-1926
5334,4010,-1502,-5716,2010,3257,3208,924,-4353
5334,4507,-818,-5770,1351,2288,2867,955,-4304
5334,4349,392,-5511,-71,506,1161,1039,-4028
5334,-435,-1340,-4469,-1349,958,755,594,-2281
5334,-420,-708,-4629,-2152,11,616,698,-2145
5334,112,-17,-6963,-3536,-580,3850,1405,-3415
5334,-64,168,-6463,-2861,-1172,1957,1009,-2506
5334,-4346,-584,-5895,-3034,-1947,129,414,-1513
5382,-2314,-914,-5957,-3198,-3858,-991,129,-1630
5382,-2356,2272,-4788,363,-7194,-11415,-926,-1348
5382,1105,3870,-6155,-856,-5107,-10205,-693,-2326
5382,91,3583,-5883,-130,-4133,-9031,-288,-2360
5382,510,4092,-5482,1197,-3906,-10315,-238,-2367
5382,1161,-1825,-9332,-2122,623,3200,493,-3319
5382,-332,-1978,-8977,-1855,-167,2252,371,-3023
5382,-2378,-117,-7571,-2724,-3082,1959,766,-1856
5382,-3683,-97,-7291,-2551,-3311,1464,396,-1057
5382,4978,-1389,-8147,-4205,-3512,5746,1223,-3739
5431,-1379,-63,-6250,-1811,-8100,-6761,-462,-1379
5431,-2412,-2013,-7341,-4183,-5246,2586,572,-1745
5431,2050,-301,-7896,-2305,-4742,827,451,-3514
5431,4554,-111,-7559,-2055,-4893,711,608,-4136
5431,4899,408,-7363,-1534,-5223,-565,493,-4155
5431,1148,1973,-6538,3004,-7885,-9750,-751,-908
5431,3239,1704,-6282,2794,-7451,-9508,-812,-539
5431,-1789,-1279,-9298,-3727,-5267,3845,1003,-2158
5431,-747,-544,-8823,-2483,-4794,2093,696,-1748
5431,-1420,-453,-10278,-1660,-6815,1653,743,-2820
5480,-2600,3690,-6963,4105,-9861,-14424,-1041,-786
5480,-1612,3341,-6315,2088,-10693,-14280,-1227,-796
5480,140,-1545,-12582,-4460,-8822,8043,1341,-2681
5480,-992,-1354,-11480,-3622,-8226,6735,1142,-2599
5480,-1100,-903,-9953,-2397,-7585,3639,722,-2314
5480,-3690,326,-10498,-2183,-7704,1624,498,-1645
5480,-2765,357,-9672,-2010,-7273,888,277,-1214
5480,1999,2038,-8113,947,-10244,-8971,-471,-2733
5480,-203,974,-7392,1205,-9293,-8567,-703,-1379
5480,-1399,-1477,-10402,-2771,-7263,1731,-56,-706
5529,-710,736,-9552,496,-8425,-6131,147,-2263
5529,557,-1548,-10422,-2583,-5228,3257,1184,-2782
5529,-85,-206,-9567,-1010,-5843,-555,671,-2037
5529,-4586,-732,-10696,-1046,-7044,1369,-1628,-820
5529,-6904,-611,-10769,-1055,-6810,568,-1341,-759
5529,2333,-598,-10791,-2693,-4776,5423,1563,-3258
5529,1659,-751,-9459,-2175,-5017,3805,1411,-3025
5529,288,-745,-10044,-4055,-7361,379,492,-2133
5529,568,-649,-9621,-2795,-7770,252,455,-2185
5529,19,33,-9022,-120,-7435,-1522,383,-1978
5578,-989,2089,-9076,617,-11760,-9613,-147,-841
5578,-168,-69,-9890,-2090,-8214,-394,739,-1580
5578,253,-280,-9752,-908,-6328,1144,990,-2124
5578,-3790,-3124,-9216,-2089,-9705,715,448,-1451
5578,-3957,-2708,-8730,-1676,-9299,249,306,-1308
5578,-1790,-1405,-9867,-673,-6947,-1210,183,-1680
5578,-1090,-283,-8966,1140,-5985,-2976,105,-1875
5578,-325,-733,-11066,-3101,-9604,3754,1367,-3095
5578,-1143,-735,-10292,-2357,-8681,2950,1183,-2251
5578,-4863,-574,-9170,-1031,-8210,-40,478,-1165
5627,-4407,4321,-6507,4037,-12478,-17069,-1719,-672
5627,-3199,2634,-6251,2986,-10702,-12778,-1294,-859
5627,-2639,2100,-6042,2583,-10460,-10992,-942,-1038
5627,963,2358,-8805,1727,-12541,-8984,-415,-1571
5627,2036,2637,-7951,2845,-12456,-10902,-681,-1026
5627,-8262,-853,-10821,-3900,-8577,5427,633,-715
5627,-4548,-1023,-9435,-2166,-8618,4442,529,-1109
5627,1102,254,-10743,-1652,-10456,1771,302,-2893
5627,2322,665,-9765,-822,-10567,-521,47,-2640
5627,1934,3784,-7484,3196,-14079,-12900,-1182,-1968
5676,-203,-274,-10695,-1596,-10934,3154,308,-2782
5676,1220,-172,-9992,-1404,-10313,2594,424,-2856
5676,2310,3100,-7706,2441,-13775,-10237,-901,-2355
5676,-1445,-1056,-11204,-1393,-12851,2546,274,-2451
5676,-621,-446,-10906,-1906,-12079,2404,318,-2383
5676,983,1004,-9742,-1995,-15899,-2782,104,-2854
5676,-547,-3589,-10669,-5872,-8070,11922,1495,-3232
5676,272,-3377,-9040,-4233,-7324,8426,1165,-2464
5676,-1139,-1002,-11209,-2719,-13684,2083,22,-1961
5676,-2674,-456,-10610,-1466,-13643,-363,-358,-1407
5724,-1843,2290,-8093,2571,-15494,-11480,-1474,-1219
5724,1043,2425,-7978,2010,-14139,-9723,-1062,-1821
5724,4138,2570,-8151,1473,-13172,-7996,-548,-2339
5724,-1264,-992,-10899,-3011,-5542,4519,204,-1779
5724,47,-699,-10326,-2687,-6290,3723,222,-1845
5724,1873,395,-10248,-2046,-2326,2817,743,-2076
5724,-1816,179,-9715,-867,-3456,811,163,-1617
5724,-2744,-2171,-11433,-2932,-4928,4996,226,-718
5724,-2073,-1411,-11417,-1628,-4876,3126,-88,-990
5724,-3142,-597,-10735,-816,-5812,121,-362,-1101
5773,2254,1232,-10523,-530,-5330,-1518,-163,-1930
5773,2542,490,-11349,-1414,-4874,2211,322,-2065
5773,4398,3160,-9644,1859,-8368,-7705,-480,-1857
5773,3518,3165,-8503,-501,-6688,-8210,-329,-2979
5773,4034,2868,-8661,-194,-8589,-7476,-397,-2454
5773,-2481,-1421,-10270,-2518,-4738,3140,301,-1802
5773,-4539,-1468,-9369,-1977,-4426,1824,-92,-983
5773,-4205,-528,-10257,-1021,-3902,1213,564,-2112
5773,-3166,-449,-9390,-932,-3107,1082,502,-2088
5773,-1961,-199,-8148,-824,-2847,-487,188,-1757
5822,-1299,1217,-8831,-74,-11335,-7898,-752,-860
5822,-3001,-1205,-9548,-2097,-6013,1248,6,-1115
5822,-2280,-229,-8617,-689,-5822,-1511,-59,-1065
5822,1217,-1458,-11322,-2345,-4416,2254,688,-2945
5822,2239,-374,-11468,-1367,-4150,1465,610,-2929
5822,2610,2829,-11637,-120,-17071,-7847,148,-1597
5822,1318,2735,-10283,26,-13426,-7411,236,-1632
5822,860,-697,-11926,-116,-6030,3152,552,-1861
5822,2507,-905,-10735,-71,-8348,2414,590,-1747
5822,1429,852,-10460,-1528,-9536,1304,575,-1583
5871,-3596,2046,-5828,2129,-16156,-12776,-799,490
5871,-4184,343,-5600,1184,-13747,-8244,-557,533
5871,862,-2219,-12293,1271,-16096,4441,784,-1756
5871,2104,-1790,-11355,1156,-15531,3291,633,-1773
5871,1040,-957,-10808,786,-15923,740,396,-1843
5871,2362,-257,-12203,-1013,-15378,1722,709,-1844
5871,2757,172,-11362,-845,-14445,638,541,-1581
5871,240,1744,-10476,263,-23960,-7995,-224,-887
5871,1042,1698,-9978,657,-22766,-6899,-54,-1076
5871,-1383,-1221,-13435,980,-22690,1592,354,-1979
5919,-95,2698,-11394,-1361,-27445,-10516,-523,-845
5919,703,391,-11277,-2148,-21422,-2741,-38,-1154
5919,90,-845,-12865,-921,-19932,2427,635,-1496
5919,-1228,-558,-12334,-916,-21581,1950,565,-1355
5919,-347,188,-11600,-552,-23051,-423,414,-1427
5919,-569,-2575,-11993,-2919,-19077,4833,1079,-1836
5919,-2174,-2167,-11067,-1844,-17447,3524,814,-1863
5919,-2999,-622,-13086,-1241,-20911,1643,374,-1020
5919,-2616,-481,-11955,-564,-20210,-143,119,-692
5919,3203,2199,-12250,2588,-28651,-9862,-1002,-954
5967,2217,2088,-12533,815,-28547,-7726,-688,-557
5967,2812,-845,-13400,-3471,-23250,3025,527,-1133
5967,1326,-1580,-10862,273,-17711,960,374,-256
5967,-262,-1494,-11826,791,-17018,167,141,179
5967,4031,355,-13516,-2953,-21245,1373,471,-1101
5967,2342,185,-12560,-2909,-20597,1336,353,-904
5967,-1432,-93,-11136,-1583,-19233,-2,183,-604
5967,958,-2239,-12396,-4003,-14507,4743,644,-617
5967,776,-2072,-11344,-3535,-13196,3559,481,-550
5967,2692,-1516,-12703,-525,-20815,1657,615,-745
6016,-3040,760,-11579,-2040,-23005,-5627,-550,602
6016,-3751,-1324,-11820,-3885,-18529,2125,220,158
6016,819,-1848,-13706,-2592,-16509,5165,705,-1400
6016,119,-1619,-12751,-2660,-16504,3519,590,-1208
6016,-1739,-1006,-11681,-2378,-16554,759,274,-791
6016,575,-1125,-16079,-1152,-18835,-958,-178,-1087
6016,-1467,-400,-16707,-1509,-19002,-1626,-225,-1072
6016,-1024,-2614,-8222,-2188,-17487,-758,-45,-1413
6016,-419,-1833,-8289,-1694,-16748,-1162,-200,-1383
6016,4688,163,-16424,-1483,-21207,-1231,-178,-1242
6065,-2481,834,-5730,-1375,-22791,-12233,-961,-292
6065,-813,-2161,-6315,-5653,-18946,-1377,40,-674
6065,3970,879,-18161,-2795,-19498,138,698,-2865
6065,1430,120,-15934,-1820,-16874,-481,-9,-1664
6065,1366,-515,-13118,-1029,-15511,-1925,-657,-240
6065,-1966,1030,-5871,675,-23352,-12117,-624,83
6065,-2814,1636,-3905,3025,-23045,-17420,-1068,384
6065,-4098,-330,-14653,-2588,-16667,1261,-18,151
6065,-2507,-373,-13642,-1856,-15393,72,-153,-10
6065,-527,-1308,-13613,-1147,-15402,797,110,-1221
6113,1022,3194,-10940,5073,-21404,-15001,-1426,-1188
6113,2701,2485,-10850,3504,-19571,-11586,-1183,-885
6113,-1037,-2536,-11223,-2307,-7149,5187,899,-1772
6113,73,-2002,-11649,-1205,-7411,4080,626,-1814
6113,2286,-1978,-14290,-2837,-14898,1916,287,-2330
6113,943,-2127,-13382,-2337,-13638,1526,257,-2289
6113,1199,-1580,-11973,-1634,-13167,453,266,-2330
6113,1036,2412,-9565,1388,-25438,-17969,-1583,-375
6113,2719,1089,-9661,37,-20955,-10332,-799,-718
6113,2271,-3169,-12137,-991,-11846,2681,529,-1530
6162,1867,-853,-10957,2291,-16439,-4527,-481,-1436
6162,2290,-2354,-11374,525,-11752,1839,193,-1923
6162,1069,2097,-4919,909,-16997,-7785,210,-1603
6162,-722,1131,-4252,852,-16441,-7155,24,-1109
6162,-1448,629,-3614,1760,-17132,-8923,-307,-574
6162,537,-3587,-10116,-1235,-9497,4186,243,-1154
6162,-3937,-3585,-9279,-960,-9434,3158,97,-1132
6162,-117,-2298,-11264,-858,-14249,2220,434,-1454
6162,-827,-1877,-11872,-284,-15024,132,-93,135
6162,1454,-2518,-13696,-2127,-16310,5973,644,-1605
6211,5934,86,-11303,-1530,-21519,-5065,124,-3897
6211,5073,-2432,-12330,-4410,-16465,4784,987,-4607
6211,2238,-1662,-11894,-3813,-22588,734,59,-1225
6211,855,-1375,-11637,-2856,-19129,-27,69,-1139
6211,611,-782,-11442,-1831,-17771,-2009,68,-1154
6211,-2878,922,-13368,521,-24611,-8974,-900,-1257
6211,111,1191,-12627,1157,-21819,-8643,-666,-1638
6211,1134,-3310,-11294,1234,-12731,2827,441,-3028
6211,701,-3078,-10125,1322,-11651,1043,196,-2568
6211,679,-2474,-14867,-2308,-30428,1574,56,-1788
6260,2343,3538,-9513,3941,-26454,-14325,-1094,-1907
6260,1609,3810,-8195,2859,-25809,-13380,-927,-1989
6260,1060,-5041,-16310,-5904,-28753,7949,992,-2999
6260,2235,-4547,-16857,-5026,-26603,6388,724,-2611
6260,697,-3592,-16168,-3331,-24668,3317,223,-2165
6260,4729,-3322,-4220,-227,-10634,779,33,-3030
6260,4944,-2431,-5737,-279,-14165,231,187,-3019
6260,660,485,-12463,-1861,-37454,-9206,-1193,-2865
6260,1817,152,-11442,-3699,-37128,-8170,-766,-2678
6260,-2060,-3462,-13564,-770,-29361,1031,-49,-1017
6309,905,-1410,-11247,-371,-35203,-5496,-356,-2107
6309,3454,-3688,-11806,-1593,-29561,2642,382,-2698
6309,3631,-2517,-10534,1282,-29454,-2694,-152,-2121
6309,-1749,-3383,-11729,-4247,-28409,576,-20,-897
6309,-1142,-2888,-11896,-5583,-28465,22,-80,-929
6309,1033,-4205,-12737,-4341,-29308,5144,823,-1724
6309,-145,-3780,-11798,-3143,-28115,3644,550,-1466
6309,-1869,-3216,-15144,-443,-32088,-780,-193,-829
6309,-1253,-2536,-13720,40,-31302,-805,-198,-978
6309,263,-1637,-11778,401,-31384,-2406,-230,-1036
6358,2465,-1817,-4326,5758,-19982,-10787,-1168,-1583
6358,1219,-4010,-3644,2022,-12913,-1026,-161,-1953
6358,1821,-3985,-2804,989,-11138,621,168,-1835
6358,390,-2020,-18775,204,-33060,354,254,-1512
6358,-6058,-2620,-15777,849,-32110,-962,-97,-183
6358,958,-3130,-9678,-2438,-40294,-3798,-1521,-3118
6358,1137,-2549,-9790,-2167,-38383,-4180,-1239,-2656
6358,-591,-2774,-10309,-399,-31150,2047,276,-724
6358,-1621,-2199,-8942,-422,-30536,698,136,-691
6358,966,-2838,-11218,-1229,-43663,-1981,-399,-934
6407,1738,1963,-8343,2797,-50054,-16744,-1173,-631
6407,208,851,-8130,2458,-44431,-12611,-826,-693
6407,2644,1581,-7650,4028,-51266,-17521,-867,-1029
6407,1063,-1089,-8681,248,-43079,-6140,15,-1152
6407,7090,-2732,-9677,-3924,-40952,3631,1253,-4053
6407,8148,-2248,-8679,-2905,-38847,3367,1064,-3567
6407,6411,-2216,-7772,-2120,-38087,2030,539,-2504
6407,-322,-3078,-6476,2912,-42030,-1250,-137,-378
6407,-456,-1796,-8458,3065,-43155,-4446,-523,-199
6407,-7776,-3723,-8429,-531,-37988,1918,-52,1190
6456,-508,-1597,-8666,1523,-51397,-8431,-821,-475
6456,-1244,-3419,-10515,-449,-41392,1518,193,-755
6456,271,-3512,-11130,339,-45602,-193,-183,-1163
6456,2080,-3177,-9294,1023,-40555,-709,-88,-1180
6456,1689,-2306,-7119,1841,-37300,-2304,-94,-1147
6456,1070,-1144,-16005,1855,-46343,-4250,-684,121
6456,-181,-4469,-14883,-449,-33789,7415,565,-390
6456,882,-2325,-9876,-1683,-42253,2282,397,-1589
6456,301,-1631,-9134,-1434,-42871,157,125,-1591
6456,1243,-2341,-7603,-381,-42202,-2086,-484,-1419
6504,2534,1031,-3191,5622,-41584,-12698,-1201,-142
6504,2956,1072,-3512,4388,-38780,-11062,-997,-210
6504,-2781,-3146,-9594,-1026,-47495,1990,-267,-27
6504,-3395,-2587,-9529,-1485,-45548,1916,-46,-551
6504,2657,-1132,-8882,-1294,-45568,-49,-153,-1413
6504,2133,-945,-8831,-1427,-44923,-513,-89,-1642
6504,4085,-509,-7842,-833,-44944,-2674,-264,-1591
6504,-1549,-4085,-11213,-5065,-44091,6343,635,-789
6504,-1779,-3581,-8861,-3436,-41342,2401,-105,-310
6504,-553,-817,-7758,-418,-47640,62,-158,-1064
6553,1159,-188,-6396,2391,-48054,-3169,-676,-977
6553,518,-1179,-5725,1760,-41487,-126,-261,-1142
6553,2286,2553,-11939,1722,-57261,-11229,-1434,-1619
6553,1673,2485,-8505,2026,-52109,-10227,-1375,-1345
6553,3677,3027,-7002,1867,-48653,-9528,-1162,-1179
6553,1478,-2670,-6375,339,-44438,1820,-161,-1054
6553,2045,-1613,-6066,648,-44132,-373,-154,-645
6553,-191,-1909,-6537,-1825,-47140,1192,647,-920
6553,1234,-1730,-6003,-2179,-45902,355,442,-736
6553,-1420,-2336,-7059,-879,-52418,2935,-15,359
6602,-1254,1114,-5754,3306,-60816,-8690,-1226,-120
6602,-1674,-1124,-6260,-609,-52327,963,-153,-654
6602,1051,-1075,2889,1587,-48806,755,436,-1506
6602,426,-1428,1599,1647,-47361,-262,42,-1079
6602,-1047,-1244,-596,749,-50492,-2579,-396,-625
6602,2157,1954,-4682,3390,-75800,-9990,-2453,115
6602,448,1681,-4643,3037,-72967,-9456,-2650,-241
6602,-1413,-1784,-2030,1400,-67468,1354,-210,-1208
6602,-1937,-2129,-2239,1567,-62101,733,-429,-664
6602,-152,-413,-13318,-1896,-83850,1539,516,-263
6651,122,5074,-10121,2405,-95525,-13349,-931,-25
6651,-1543,2845,-10847,1095,-87994,-8757,-636,-154
6651,-3495,-4119,3411,2983,-94319,3627,1889,609
6651,-4391,-3217,1204,2519,-94478,2406,668,593
6651,-2900,-1978,-1319,2548,-90447,-77,-218,613
6651,-720,-1736,-7262,-1666,-97778,1121,-478,-1164
6651,-665,-1379,-5503,-517,-91695,434,-387,-1019
6651,2187,328,-4709,5920,-120419,-10442,-1459,-542
6651,2512,52,-4845,5744,-111551,-9261,-1374,-623
6651,-3140,-2059,371,1171,-112231,1337,-380,-65
6699,-908,-581,-7497,1027,-126048,-3894,-1165,14
6699,-627,2370,-8358,3288,-131443,-12227,-1730,190
6699,-676,-1455,-5315,-2492,-129301,3010,223,-1839
6699,-543,-1570,-4046,-2424,-123326,2055,-180,-1106
6699,858,-742,-3692,-1189,-120098,-1056,-658,-997
6699,2406,-2205,-14371,1036,-125820,4338,390,-2281
6699,1235,-1186,-15799,1916,-120869,2500,203,-2181
6699,4218,-2412,871,-3909,-133676,2882,489,-2904
6699,2881,-2115,4743,-2732,-122176,2185,279,-2626
6699,3018,1680,-3329,2656,-149184,-8453,-1160,-968
6748,-1275,711,-7232,2466,-148731,-9000,-3511,451
6748,-1128,-437,-8031,1005,-141087,-4950,-2465,486
6748,-823,-2073,10156,5135,-117485,412,165,-3935
6748,-187,-1325,9194,4659,-116055,-543,414,-4151
6748,1428,-564,6394,3780,-119762,-2523,106,-3181
6748,838,-1646,-2834,-1092,-133891,689,7,-710
6748,1736,-1138,-2680,-768,-127992,-633,-31,-469
6748,721,-1733,-8175,-3164,-135881,3757,415,-558
6748,1036,-1369,-8071,-1431,-128690,2707,231,-554
6748,691,-1526,-4240,-1551,-136895,1294,521,-428
6797,3447,2680,-2250,5414,-152405,-16077,-921,-467
6797,3684,1800,-3035,5247,-141891,-13535,-1064,190
6797,-3398,-1942,-961,1566,-132187,-3783,-710,972
6797,-3589,-4433,-1287,-1889,-110590,5963,68,-24
6797,-4094,-4223,-171,-1154,-99489,6068,-66,13
6797,4433,-2585,5780,332,-110614,1207,198,-1550
6797,4193,-2851,7227,1314,-102116,691,178,-1591
6797,3343,-909,-9594,-3963,-113950,3316,4041,-296
6797,3049,-72,-9019,-3142,-110702,2049,3014,-1107
6797,-248,-2061,-5360,-1297,-113868,-160,-972,-160
6846,4421,56,-1864,518,-112139,-2863,-416,-491
6846,3455,-1257,-2071,612,-100023,1277,281,208
6846,-2747,-1526,-7073,-1004,-105547,261,-792,90
6846,-1848,-1752,-4286,-986,-104211,-47,-992,69
6846,-929,-1668,-2065,-211,-101692,-1322,-1246,739
6846,1131,2225,472,-338,-115786,-10688,-753,-107
6846,1391,-2789,-2239,-5323,-85100,8408,1109,-1385
6846,4290,-1232,-4004,-185,-95531,178,-207,-2829
6846,3525,-731,-4262,-234,-92231,-486,-170,-2591
6846,-111,-292,-12476,-1918,-100843,-535,-331,-794
6940,1497,125,-3173,1201,-71979,-4204,-608,-788
6940,2005,-483,-3850,1321,-59535,-1506,-337,-1238
6940,1197,-345,-333,1966,-68061,589,336,-806
6940,2511,694,-414,3188,-69468,-2246,104,-760
6940,-1306,-1120,-703,-1001,-58458,1228,-76,-1145
6940,-649,-759,-834,-872,-56373,695,-87,-988
6940,3845,195,-7029,791,-59614,705,94,-2770
6940,4562,819,-9107,321,-57375,554,159,-2579
6940,3369,956,-7263,579,-55110,-453,-72,-2249
6940,-249,2287,1576,3774,-67609,-10626,-2649,1481
6989,-917,1573,2605,6722,-57921,-8816,-1015,1019
6989,-134,-1184,1630,2703,-41238,1675,-199,573
6989,39,-1062,1071,3438,-47148,-39,-222,-32
6989,121,-1070,1569,3354,-44539,-335,-339,315
6989,1400,-583,2377,-1713,-46992,603,162,-197
6989,474,605,3375,52,-51314,-4276,-290,-536
6989,1459,3437,5737,3958,-66442,-16375,-1496,12
6989,2687,-2902,-72,2075,-38239,2374,-387,247
6989,540,-2662,473,95,-37111,1750,-319,214
6989,-3985,-1535,-6290,-5675,-55253,2414,91,585
7038,-4087,764,12523,7626,-47879,-15761,-2196,2085
7038,-2849,-109,14026,5646,-38831,-10599,-1464,1116
7038,-233,-1095,-4617,-1961,-39795,7018,931,-128
7038,1374,-2962,-5828,-4395,-26183,13513,1541,-383
7038,3124,-1364,-1699,-2150,-44305,1632,-361,-1191
7038,4508,-921,-2346,-884,-41828,1482,-305,-1671
7038,6074,33,-2883,-383,-41007,127,-357,-1965
7038,-981,5,-360,4363,-46264,-6177,-776,2082
7038,-239,2867,2355,6063,-58993,-16226,-2014,2299
7038,-3088,-2212,-2257,2485,-34409,1184,-1301,576
7086,3681,2190,2447,190,-53208,-10955,-1744,87
7086,2746,717,-6,-4341,-48261,-3427,-879,130
7086,-914,92,-4874,-173,-33880,3349,500,385
7086,-2245,-41,-2367,289,-31689,2628,137,237
7086,1955,1009,-2459,231,-41789,-748,96,47
7086,70,-2294,-3593,-3007,-22147,10484,910,141
7086,-1078,-714,-6076,-3081,-36174,2890,-60,116
7086,-1104,-875,-4415,-2015,-33622,2170,62,153
7086,201,-331,-2509,-348,-34568,-453,-250,211
7086,378,-272,-2483,-2482,-29108,3529,118,-501
7144,1744,2268,2408,4184,-52600,-10613,-1567,-333
7144,1562,1382,1806,4523,-46927,-8499,-1348,-417
7144,1983,-1346,-2863,-1207,-25144,5640,-819,-591
7144,1924,-798,-3832,-1756,-24422,4847,-327,-867
7144,2666,-1250,3459,1131,-27013,3080,108,-1057
7144,1541,-1292,5788,1076,-25870,2582,227,-546
7144,-1951,-1768,-4349,-4549,-23482,9698,711,196
7144,-1066,-1751,-2236,-2830,-22223,6412,287,531
7144,1694,-8,-4440,2132,-33263,1153,1237,-494
7144,147,-530,-3240,1652,-31028,1109,3136,-550
7193,4444,3763,-39,5706,-58046,-16254,-2587,-1127
7193,1087,2376,-517,4325,-52492,-12334,-2605,-574
7193,97,1434,-1052,3632,-46232,-9321,-2088,-366
7193,-2213,-1554,-1492,4779,-16868,3845,-567,1661
7193,-2603,-1091,-1895,5437,-18398,2715,-474,1562
7193,5447,-229,-1460,1811,-15813,2025,-202,-2297
7193,7157,23,-2319,2752,-14762,1517,-92,-2189
7193,7774,742,-2648,3071,-18242,17,136,-2422
7193,-1007,-941,-3892,-2860,-19779,8039,1332,-1322
7193,-1056,-984,-3018,-2162,-22151,5870,880,-1007
7242,4991,4025,930,1978,-46344,-11325,-1018,-1672
7242,2654,845,413,-989,-27991,-795,-359,-1348
7242,2790,-151,901,-651,-21712,856,-332,-755
7242,142,1665,78,158,-42785,-6707,-586,1096
7242,-34,2063,-627,-106,-40955,-7263,-703,524
7242,179,-1564,-2435,-403,-12589,5808,458,-814
7242,959,-1150,-1573,865,-12647,4585,514,-928
7242,180,20,-1097,2258,-16259,1495,76,-816
7242,1669,-1058,1373,-3516,-20256,3786,763,700
7242,2935,-81,1430,-1954,-20826,2024,629,574
7291,1462,527,-2539,1286,-37212,-1989,-531,515
7291,1022,-1294,-3231,-1547,-25265,5077,115,360
7291,-428,-62,-272,652,-31850,-2198,-432,684
7291,-4013,-91,-4368,-6415,-37744,2723,-296,1752
7291,-5672,-132,-4497,-4120,-31875,1921,-368,1580
7291,1209,2410,954,2682,-48057,-9324,-1093,1027
7291,757,2020,1145,2943,-42565,-8385,-990,960
7291,-1003,1646,1999,3831,-38622,-8869,-1082,962
7291,3170,-1281,-1368,1034,-21719,5402,312,-1057
7291,801,-1673,-694,541,-21398,4293,-90,-565
7339,-1823,1480,2059,-724,-44423,-8137,-892,1948
7339,-421,3436,2630,977,-53825,-13827,-1249,1733
7339,-175,2983,2245,124,-51600,-11874,-1125,1421
7339,-4801,-3949,-2102,-995,-13950,10828,1561,3549
7339,-2282,-3104,-1613,-151,-13997,9188,3508,2339
7339,-2041,-1867,-9147,-787,-28365,1523,-2248,594
7339,-1622,-1783,-6883,-598,-27093,1297,-2208,593
7339,-1213,-1124,-4836,-793,-28211,-28,-1979,479
7339,-1435,547,1448,-180,-52340,-7823,-1186,229
7339,-1710,-513,1472,848,-48083,-7111,-1210,388
7388,2447,-1063,-837,-4575,-33512,4383,120,-1119
7388,3601,-467,-1162,-3129,-30123,3710,207,-1301
7388,2445,2857,943,1234,-47016,-9164,-833,-757
7388,2843,-773,-1958,804,-27128,2877,-1,-1282
7388,2347,-1401,-282,497,-24981,2759,-40,-431
7388,4419,-707,-1342,-3215,-11734,8100,1924,-2428
7388,2283,-461,-1427,-3163,-13104,7061,1852,-1517
7388,-18,164,-1770,-2035,-19696,4129,1187,-467
7388,-1090,-717,-986,693,-25457,1329,-738,2044
7388,-2126,-661,-577,101,-26254,617,-733,1731
7436,-1365,2461,1921,5629,-38649,-8920,-1136,1406
7436,1043,4260,3526,4808,-45455,-14698,-1477,1374
7436,1045,-447,939,-1961,-14472,3755,382,489
7436,80,-1698,372,1360,-15296,3528,48,-493
7436,478,-1007,-602,-1311,-18224,3755,414,-472
7436,1730,-1020,-439,-3920,-23731,3865,462,-726
7436,3615,-738,-727,-1456,-23817,3184,242,-818
7436,3412,-517,-465,-419,-24885,1890,353,-554
7436,-3155,-2012,-2595,-1251,-16427,6193,240,1782
7436,-2181,-1518,-1806,-254,-16476,4609,-120,2103
7485,-3165,2022,2854,2284,-54119,-11852,-1754,3491
7485,-3917,-168,1460,545,-39400,-3629,-554,2713
7485,-2819,-1728,-518,-610,-26600,2183,-41,2115
7485,1176,1878,1388,4696,-57157,-11828,-1362,1042
7485,-22,3204,1840,6936,-60402,-15850,-1697,1199
7485,2086,-2581,-2283,-1482,-20980,6851,824,-967
7485,3132,-1829,-4145,-560,-18011,6009,705,-906
7485,2921,-765,-3086,-276,-20602,3455,373,-634
7485,1459,-1277,206,-4412,-31736,3342,77,-333
7485,1570,-804,50,-3167,-30750,2387,21,-70
7534,-1613,144,1675,2465,-49270,-4560,-303,-327
7534,-3251,-2181,-812,-489,-30476,5436,558,-612
7534,-1819,-961,-775,1540,-31094,1462,-84,-884
7534,-5236,-1494,3052,758,-28473,2693,-187,2699
7534,-3055,-834,617,677,-31086,2289,-172,2081
7534,1473,4827,3715,9682,-70918,-19559,-1291,587
7534,957,2174,2733,7364,-51132,-9817,-379,358
7534,-541,3589,3647,9652,-59829,-16364,-893,741
7534,-941,-3304,4249,-2567,-16770,9151,1697,243
7534,-209,-2811,5016,-1791,-16492,7737,1504,136
7583,1192,2563,-562,3864,-60944,-12794,-1669,335
7583,1127,1447,-1296,3480,-49857,-8344,-1418,618
7583,-651,1750,-1258,3788,-46027,-8639,-1431,706
7583,-3273,-2958,-583,-5027,-18338,9470,538,-82
7583,-2557,-2398,-801,-3727,-18232,7926,266,84
7583,645,-45,-3142,-3408,-28302,5915,355,104
7583,751,-1342,-2581,-2205,-26700,5345,172,609
7583,-831,-2018,-2047,-1166,-27543,3590,-47,998
7583,5973,-2659,1117,-5355,-17069,10024,1011,-1138
7583,5460,-2210,1470,-4408,-18518,7808,820,-609
7631,-3270,2070,640,4918,-50792,-8974,2235,2371
7631,-826,177,-613,1929,-34303,35,2422,1500
7631,-1010,-689,-1093,748,-23823,4097,1920,894
7631,2551,1991,2065,3363,-50925,-12256,-2151,-267
7631,1226,1203,1775,4267,-42982,-9323,-1997,-264
7631,4485,-547,2252,-13543,-10913,9325,768,-3035
7631,4685,-1008,3655,-10568,-11601,8703,568,-2737
7631,4314,-1155,5085,-5268,-18033,6444,333,-2141
7631,3344,-1521,-1789,-2226,-32062,3944,-151,-2545
7631,2343,-2125,431,-1868,-28565,3372,-128,-2840
7680,3366,1185,-4602,2511,-39000,-2675,-757,-1200
7680,1684,80,-4476,-872,-32191,-248,-645,62
7680,3195,2636,-2632,2634,-48900,-10179,-1581,205
7680,322,-898,-4546,-2579,-29397,5835,245,-418
7680,-523,-676,-4296,-2641,-27550,5131,-990,-19
7680,-1083,1999,2827,4727,-55855,-11696,-1538,148
7680,-315,1386,2161,2438,-48207,-8175,-1124,291
7680,-1294,1618,1941,2127,-45347,-7738,-899,501
7680,2444,-1811,-657,-1065,-17145,6461,517,-1538
7680,845,-2385,236,-777,-16409,5014,81,-1112
7729,2492,3852,1268,3201,-57507,-12417,-1193,605
7729,2360,3110,598,2074,-51707,-9580,-896,-353
7729,1228,2039,129,1573,-42675,-6671,-767,-612
7729,-3558,-4614,-1670,-4826,-7316,11269,279,1682
7729,-2998,-5580,-1046,-3723,3181,13285,322,1490
7729,1620,-1894,828,-178,-6100,6114,193,-1101
7729,2474,-1235,478,-3206,-9625,5395,364,-1397
7729,-1165,606,5153,2632,-41878,-9792,-1270,114
7729,-850,290,4389,1618,-37018,-7319,-879,5
7729,3638,-912,843,1804,-9983,5561,899,-1240
7778,-1742,-2020,-1458,233,-15771,863,-614,525
7778,-1424,-3624,-1437,1036,-1644,5294,-109,253
7778,-2329,-1135,271,4698,-16294,-4582,-974,456
7778,-2636,-1424,-417,-1106,-11144,3639,-139,477
7778,-1127,-1155,-111,-330,-8690,2841,-293,480
7778,-581,-2994,558,5861,1489,5642,186,-234
7778,-624,-2204,749,6629,-742,3317,-108,-175
7778,4120,-1313,-1033,-2697,-5474,4485,1066,584
7778,3074,-93,-2248,-2949,-9163,3894,672,1178
7778,137,1136,-1699,-3265,-16277,1343,-252,2178
7826,57,1440,1829,6585,-34041,-9018,-1254,1528
7826,371,-706,1197,2548,-15895,784,-92,864
7826,2485,-958,3227,-927,-6150,2965,291,-529
7826,1928,-930,1625,-178,-6976,2242,156,-467
7826,1002,-293,1178,2116,-8623,-347,-57,-337
7826,-1906,-1011,945,-1507,-8476,2046,-150,141
7826,-919,-528,307,-816,-9354,1047,-274,-436
7826,2480,4695,3351,3943,-49450,-18495,-1828,949
7826,1188,2810,2353,1722,-36731,-11435,-1172,679
7826,905,34,-1768,-3125,-3175,5941,360,-1011
7875,-522,-1477,-978,-3241,-2136,5127,695,-887
7875,190,-502,-940,858,-6997,1805,443,-1027
7875,1411,2720,884,6172,-29434,-10871,-1019,-107
7875,1154,4318,-2345,6810,-42946,-15788,-1681,1429
7875,1224,2805,-710,5535,-28455,-10693,-1115,1091
7875,486,-2022,312,-2422,6860,7408,457,382
7875,377,-1163,-524,-1691,1387,5407,451,82
7875,1750,-1136,21,619,-1907,4092,25,-69
7875,741,-1040,397,-962,-3441,3681,97,-68
7875,2282,-377,853,-1616,-7484,1533,16,-94
7924,-44,2351,-768,5442,-24291,-8369,-533,449
7924,-1055,-367,-1553,1568,-6015,1962,443,23
7924,1860,1057,1615,1966,-18682,-5506,-37,-36
7924,689,-1826,-943,-2766,-4625,4913,-184,689
7924,1737,-1423,-452,-2077,-4155,3504,-267,287
7924,-56,4183,3507,2430,-48767,-18335,-1540,769
7924,-1539,1601,2405,200,-34459,-10806,-898,698
7924,-447,-2260,-368,-890,7380,6979,526,105
7924,-506,-2145,154,1408,5674,4767,213,335
7924,134,-1349,667,3457,1584,1561,-161,235
7973,-956,2999,2229,314,-29440,-10430,-1127,-60
7973,1420,2211,1195,-977,-24810,-6438,-684,-330
7973,1218,1947,606,-355,-20233,-5120,-569,-544
7973,3507,-2252,-2179,-3758,2934,7709,532,-565
7973,2732,-1088,-7463,-5139,1418,7064,604,-388
7973,1388,-2416,491,-5022,2809,6539,549,189
7973,939,-2111,563,-3980,2241,4856,189,470
7973,-3784,474,4630,1080,-19792,-6723,-1079,428
7973,-3162,-4063,108,-3690,14845,10863,595,-256
7973,-1190,-3159,-1540,-2361,12864,8558,595,310
8068,2028,-915,-2286,252,6477,4059,436,-370
8068,983,-1316,-3202,-1109,8912,5731,674,-463
8068,72,-1374,-2578,-887,-5423,2888,216,-286
8068,1496,-1699,-847,-202,-1985,2246,266,-686
8068,1811,-1787,2700,1396,1595,386,165,-720
8068,3427,-85,839,-1248,4143,2424,260,-1524
8068,2804,248,516,-1118,2647,1842,361,-1328
8068,7393,-1409,-137,-3051,8394,3919,970,-3761
8068,7133,-1042,-377,-539,3172,2809,817,-4327
8068,-2424,-1217,1416,-805,1844,1831,132,534
8116,2356,2592,-35,5961,-22111,-11959,-1269,338
8116,2499,1004,-636,1480,-12359,-3937,-522,6
8116,354,3165,3408,986,-33125,-14702,-1909,12
8116,1374,571,1693,-1948,-12119,-3616,-539,-540
8116,-46,-1793,-428,232,12619,4484,212,357
8116,-1289,-1243,-260,-384,11546,3532,84,198
8116,-1008,-448,123,-2088,6170,1294,-64,226
8116,-674,362,-1205,-136,6798,4067,687,-312
8116,-534,714,-1125,503,4202,2609,382,-105
8116,350,-1800,-654,-400,10018,4357,223,-1689
8165,-2501,-145,1757,-12,-7372,-2354,-295,1379
8165,-830,-280,1058,-217,-1023,-173,-169,1918
8165,1588,-1337,-518,-2197,3293,3357,890,-1308
8165,457,-1127,207,-1576,3985,2689,653,-1377
8165,1696,-585,1637,-571,888,231,437,-1629
8165,674,3876,2741,3719,-38151,-19105,-1809,2251
8165,1806,2951,3474,2456,-32632,-15667,-1370,2236
8165,-3887,-2482,-1516,277,12246,5465,443,1177
8165,-4628,-1890,-3174,-427,6323,5278,589,769
8165,718,-972,795,-3226,6358,5015,509,949
8213,2477,2452,3534,8445,-20519,-12172,-896,219
8213,348,1567,4159,8959,-13537,-11178,-1182,568
8213,1020,-1691,-2101,4413,15592,8280,997,770
8213,-1490,-1676,-2325,3631,6598,6177,564,1367
8213,1441,-976,2,-4710,10975,5999,1258,16
8213,375,-552,-163,-4070,9520,5156,828,-45
8213,956,-31,278,-2352,4615,1912,-102,41
8213,3091,-2901,-614,-1150,15526,7401,403,-547
8213,3906,-2293,115,-1060,15412,6913,542,-351
8213,68,-836,-256,-657,5926,2560,-105,-223
8261,2094,1206,963,1130,-13117,-7362,-1211,1329
8261,338,1568,1424,1021,-17559,-8807,-1363,1236
8261,-63,-213,-2157,-1260,-603,-48,-20,607
8261,-30,3114,-488,1835,-21448,-10712,-921,818
8261,1904,-1741,446,-5432,20573,6575,710,13
8261,2187,-1060,205,-5615,13996,5813,708,365
8261,1454,-1491,-314,-1919,4341,3620,151,-658
8261,1561,-1231,-56,-2230,4059,3097,155,-764
8261,5272,1311,818,2611,-14238,-6316,-190,-1290
8261,5623,2047,2030,1856,-13444,-7389,-120,-1678
8310,4527,1448,-1576,-4516,7283,6131,3,-285
8310,-1247,-534,-880,-2561,5503,3948,390,-57
8310,-394,-1150,-519,-1313,5587,3264,361,-107
8310,-1678,-1526,14,-443,3409,1705,197,-297
8310,1708,403,989,566,-12773,-3573,-259,107
8310,1854,2679,1733,3634,-29505,-11887,-1033,574
8310,447,-2402,-2670,-2066,8533,6003,656,-16
8310,-569,-1960,-2882,-1713,7287,5231,554,69
8310,649,-1509,-286,-1561,5345,3586,337,102
8310,761,-1749,269,-1528,5267,3502,406,133
8359,3120,3834,3435,4797,-26404,-13307,-1013,-351
8359,3259,2667,3164,3495,-19095,-9470,-771,-346
8359,-21,-3385,-2419,-1384,16578,11531,2590,-1673
8359,562,-2254,-3892,-2140,4825,9411,2221,-1298
8359,2693,-760,-1268,-2849,21,4265,617,-640
8359,1726,-878,-672,-2509,974,3498,584,94
8359,2476,2694,66,229,-23926,-7145,-527,-870
8359,1964,2407,-170,-19,-25364,-7109,-808,323
8359,1578,2604,210,645,-28707,-8957,-1169,1411
8359,-2325,-2615,2376,198,14338,5162,100,1154
8408,-994,1774,-3496,172,-25823,-4623,-617,1017
8408,546,-1048,-2923,-204,-3356,4050,189,216
8408,-944,-1963,-946,-2436,-957,4187,-63,311
8408,-1351,-1503,-320,-1366,-2068,2705,-274,455
8408,442,-2536,-1290,-1858,14369,7748,437,-68
8408,471,-2270,-380,175,14427,6008,215,-23
8408,-3409,-1807,-978,315,-4146,1984,-509,1127
8408,-1412,-1528,-714,446,-5350,996,-501,487
8408,-1866,-846,-417,556,-9662,-982,-542,444
8408,3204,1693,376,3101,-26432,-7546,-759,143
8456,1139,2020,1,1748,-27693,-8463,-957,1037
8456,-1833,-1811,-2208,-1324,-697,4188,-116,1485
8456,-1844,-1314,-2168,-1458,-2451,3532,-79,822
8456,-537,-561,-1703,-1134,-7229,1024,-192,433
8456,1448,-380,-2910,-1449,-5369,2508,-63,573
8456,1882,-246,-2647,-1198,-6977,1396,-170,569
8456,926,-3558,-3311,-3956,15502,12505,574,2864
8456,-1116,-2987,-3332,-3670,12261,10398,122,3650
8456,1500,-79,-2491,667,-5871,1282,-51,9
8456,336,80,-2826,40,-7616,733,-232,-20
8505,1816,2,-2496,1723,-12591,-1285,-469,442
8505,339,-1222,-1911,1195,-1478,2639,-71,726
8505,117,1609,-556,3087,-34524,-10513,-1125,939
8505,-663,4606,957,4822,-54858,-20097,-1891,1087
8505,5857,-2212,-1799,-1440,-6024,4708,416,-887
8505,5396,-1867,-1405,-1030,-6382,3873,501,-760
8505,1226,-1356,-1604,-2453,-12508,2890,209,-482
8505,2225,-1181,-1569,-2285,-12024,2326,108,-649
8505,115,-549,-1517,-1467,-14207,446,-235,-150
8505,-612,-2101,-632,729,-8077,4160,361,1201
8554,1794,1047,-219,2636,-33321,-6022,-830,654
8554,62,-1473,-1430,-126,-13092,3395,124,243
8554,-22,-1939,475,-134,-15083,1854,-34,343
8554,1860,-1198,-58,-1680,-16176,1403,-6,262
8554,2272,5373,3402,9429,-67383,-21924,-1896,918
8554,-134,4592,2896,7618,-61246,-19100,-1770,1077
8554,-2788,-2380,-1652,-817,-11125,4470,196,708
8554,-1639,-2029,-1490,-1135,-11324,4125,407,379
8554,-291,-1375,-906,-1045,-15409,1597,325,447
8554,1650,-895,-770,-2274,-11345,2999,163,-536
8602,2631,3306,43,6870,-54768,-14810,-1931,840
8602,-229,-1503,-2708,-5028,4539,9671,4,2013
8602,678,-1097,-2365,-3818,3593,7677,-139,2661
8602,-182,-152,-2314,-2679,-2500,4561,-416,3218
8602,-525,-2398,141,-1509,-11038,3718,403,1413
8602,-2900,-2067,296,-536,-11510,2638,243,1327
8602,161,27,1670,139,-31176,-6353,-585,-425
8602,65,-102,1354,190,-29049,-6610,-682,-78
8602,1712,-1523,-1025,-3320,-10794,3955,618,107
8602,99,-1716,-976,-2011,-10485,3224,534,200
8651,3563,1955,1572,1944,-34057,-9295,-787,842
8651,3207,-1264,-724,-5298,-8213,3831,575,63
8651,2984,2832,2257,3065,-39098,-11224,197,-381
8651,1858,2520,2196,2662,-34632,-9397,380,-210
8651,1238,-1893,-2008,-4260,234,7875,1216,-211
8651,393,-1418,-1783,-3453,1335,6552,1090,-174
8651,-3105,-2242,-1034,-3760,-5051,3651,328,647
8651,-1391,-1782,-1085,-5275,-7134,2773,262,52
8651,740,-688,-953,-3767,-12110,226,-57,-319
8651,-1163,865,1360,2871,-21443,-5610,-451,1875
8700,7,2574,1113,-2063,-17170,-6587,-541,680
8700,1133,1867,-265,-6488,-14009,-1933,13,-411
8700,-1668,-2411,-344,-2891,8475,4800,317,900
8700,-1357,-2398,-178,-2415,7625,4258,276,798
8700,1988,2575,2126,964,-22452,-10866,-1527,1202
8700,1787,1552,2815,856,-16979,-9650,-1320,1078
8700,-81,-1902,485,-6300,26388,6736,903,144
8700,1858,-1245,426,-4845,22913,5599,894,133
8700,1876,-541,1074,-1515,16473,2647,415,447
8700,-4292,-2166,-757,-2310,18272,2581,-432,2645
8748,1319,1489,2282,-1606,6471,-7946,-238,-1039
8748,-565,2817,2812,-1561,-8128,-12506,-746,-107
8748,-2566,-2306,-363,-4589,27428,4134,300,1762
8748,285,-4627,-1469,-6203,46188,12564,1207,1099
8748,2011,-1286,296,-1212,43800,4247,477,145
8748,633,-902,260,-344,39414,2557,196,75
8748,3149,1046,1015,-3375,25906,-4679,-1121,1852
8748,2497,3295,1928,-47,7630,-12749,-1546,2774
8748,601,2973,1501,999,9388,-10952,-1064,3342
8748,1660,-2749,-76,-3251,55762,5067,301,-1904
8796,2619,1569,1363,-717,34062,-5412,-178,896
8796,-3085,-1471,-910,-4408,55440,4276,40,1196
8796,-928,-1648,-406,-4320,52564,4369,142,928
8796,-867,-1109,-288,-3267,47909,3172,315,778
8796,-5946,2595,2741,4335,14267,-15058,-1837,2346
8796,-5494,1110,2287,4005,18120,-11843,-1260,1432
8796,1430,250,-945,390,56043,6479,333,-108
8796,3040,263,-999,-2675,52055,5351,158,-183
8796,-1605,-1265,94,-2107,54158,4054,-151,190
8796,-231,-1176,1109,-1861,49819,2612,-415,284
8844,1357,1603,1939,-2381,22976,-7090,-906,648
8844,2724,-1257,-469,-727,55548,5637,-17,861
8844,1136,-1340,-521,-411,51928,4753,-152,598
8844,618,-1233,78,505,44399,1653,-518,291
8844,1539,-1515,-120,-4135,48177,4229,-354,789
8844,1754,-930,-134,-3042,43145,2815,-569,1379
8844,2186,-823,537,-3632,40993,2490,120,1300
8844,2324,-3123,-757,-6424,57053,10751,988,919
8844,1573,674,-1152,-2321,43144,4164,473,288
8844,467,889,-1893,-2291,37955,3281,311,873
8893,-2884,672,2081,473,20683,-6684,-768,1327
8893,-457,2094,1799,1835,29481,-6989,-696,692
8893,1231,2215,1003,2006,27744,-6659,-775,882
8893,1276,2593,834,3493,23552,-8500,-1160,1081
8893,1097,-2774,284,-3023,68443,6799,589,-279
8893,1258,-2413,589,-2135,63589,5250,384,-615
8893,-1355,-1112,-246,-1234,98469,4955,609,460
8893,-1081,-1017,-170,-1049,100062,4218,336,637
8893,1790,-2019,-66,-2406,200905,6397,549,626
8893,671,-1345,-82,-2855,189892,5633,535,631
8942,927,2893,2613,2193,175484,-9901,-933,825
8942,-6875,-1812,1131,287,248808,3392,-742,3019
8942,-3367,-1293,1041,1049,235736,2709,-628,2360
8942,753,-271,1150,1033,219901,497,-582,2082
8942,-613,2830,1485,2429,225466,-5875,-1782,4115
8942,-1407,2077,2171,2237,213345,-6379,-1730,3481
8942,5308,-442,75,-4893,250168,7508,811,-1022
8942,5532,-128,197,-3489,236850,6181,509,-808
8942,515,-1564,1298,-2685,254725,2910,-484,1402
8942,2243,-838,1162,-1601,241115,2356,-475,1346
9048,-3330,1351,2305,-3840,245298,2786,-103,2497
9048,1800,2312,547,-6779,261239,6036,313,1241
9048,1787,2425,518,-4503,247141,5705,537,1240
9048,-927,-329,2127,-1384,259560,6573,236,2197
9048,942,-112,2407,-3717,245203,6874,394,2182
9048,1396,948,1743,-3611,230149,5171,216,2076
9048,298,2556,1223,-1874,242596,4230,33,2763
9048,-141,2951,1287,-893,228003,2840,36,2792
9048,-2004,4914,3641,4296,216909,-9975,-1461,2558
9048,-4075,4328,3246,6201,206297,-9369,-1507,2815
9097,5706,5185,2679,3408,211145,-5396,-487,530
9097,4626,2706,1013,617,210184,4595,489,59
9097,5866,3416,979,1557,196280,1899,281,104
9097,-1871,1414,1426,828,197715,4378,195,2496
9097,-2447,1525,1426,408,186199,4181,89,2421
9097,-1189,-1379,215,-4319,195889,22032,2054,1907
9097,-2731,-517,162,-2386,182358,16622,1890,1767
9097,-2045,418,455,-864,169147,9926,1334,1517
9097,-1742,2672,1178,-267,163458,3576,500,1866
9097,-552,2418,1160,899,154544,2688,293,2499
9145,1038,6863,2722,-470,149892,-8303,-625,1065
9145,2438,5602,3045,2516,147127,-5800,-588,1535
9145,346,6007,3330,4129,133447,-8313,-850,1904
9145,-880,1978,2142,849,147290,5440,-103,357
9145,-284,2331,1771,-746,138088,2911,-87,411
9145,-2836,3271,2181,1359,141427,1765,-293,1429
9145,-1821,3061,2126,2156,134138,1494,-406,1320
9145,-1942,3051,2344,2414,125383,330,-473,1057
9145,4541,1543,2054,-1788,141537,9508,533,-733
9145,3033,1641,1537,-1597,135036,9267,593,-559
9194,-2667,6993,5327,4791,146454,-10332,-2492,3639
9194,-1952,4328,3379,1057,147859,507,-1387,2922
9194,-1000,4152,2458,779,143513,2741,-1000,2453
9194,166,7457,4897,3182,145836,-7124,-1136,1522
9194,-29,6898,4436,2389,138633,-5730,-1126,1692
9194,-2504,4112,3887,-1087,148427,3624,164,974
9194,-1268,3943,4050,-1737,140893,3646,158,1243
9194,-1745,4549,4117,261,132103,512,-184,1332
9194,1222,5153,3051,-2878,134205,5929,80,-29
9194,-131,5394,2665,-1841,126639,5231,195,118
9243,-983,4618,5212,4758,124483,-6333,-305,-16
9243,-1612,2432,3938,3657,124106,4691,696,-321
9243,-1799,3794,4415,6507,112357,4955,939,-160
9243,-316,4881,3433,61,114687,3498,446,247
9243,-867,3777,3470,354,108369,2976,334,-324
9243,6799,6950,6815,7871,106621,-11267,-848,331
9243,4734,9139,7711,8417,92803,-20175,-1712,441
9243,3679,8628,7525,6929,87420,-19719,-1874,449
9243,-6001,340,4789,192,123217,6392,19,1402
9243,-3500,607,4517,-78,115684,5511,-82,1014
9292,2316,7059,7055,6756,111510,-11328,-1185,-153
9292,2101,6532,6436,6940,105994,-9978,-1085,-318
9292,814,5197,6261,5285,102248,-6878,-665,24
9292,-1182,-693,6313,1331,124269,10087,-814,1201
9292,-1747,-361,5747,82,115919,9027,-650,177
9292,-1130,617,5223,1882,123308,6887,204,-96
9292,37,954,5009,30,116059,8089,754,-99
9292,-318,1376,4976,-1267,108976,7271,977,-126
9292,-3591,2712,6782,7887,108265,-9079,-1612,2056
9292,-3050,269,5606,4017,108026,197,-751,1414
9341,-1503,454,7274,2947,108939,-22,-450,297
9341,-3542,-1311,6149,1062,107159,4727,-512,619
9341,-4413,643,7159,3839,95432,-3884,-1462,1292
9341,1503,2362,7979,4043,97881,749,420,876
9341,2021,2744,7176,3348,93295,-3704,-684,1027
9341,4235,-1594,5935,1617,102359,6694,826,-430
9341,3159,-1713,6188,538,97503,7091,770,115
9341,3734,-1361,6278,-1667,92845,7104,765,805
9341,-1835,-738,6363,535,96257,5830,700,757
9341,-2685,-636,6328,1322,91585,5151,629,581
9390,-1542,-120,8579,1828,98362,871,-250,648
9390,-1008,-1897,7831,-4209,95588,6820,725,33
9390,-1931,1577,8603,-189,80645,-4935,-75,421
9390,-1403,-1451,7624,2118,92911,5204,347,-481
9390,-2,-1433,7809,3791,88366,3999,217,-745
9390,2826,1576,9906,4531,82439,-7298,-1043,2325
9390,2250,1383,9009,3618,77630,-5466,-914,2194
9390,-951,1367,8787,2918,72270,-4405,-713,1447
9390,-863,-2704,7624,-1487,85996,9218,859,608
9390,-2484,-2875,7267,-521,80631,7969,682,578
9439,-11030,1694,12174,5177,76004,-8265,-1755,2771
9439,-8157,1325,12006,5268,71779,-9000,-1813,2852
9439,-5713,540,10936,4288,69651,-6530,-1335,2302
9439,-2462,-3788,7405,-2564,87471,10460,136,9408
9439,-2090,-3109,7479,-4568,80998,7684,202,7335
9439,3242,-2312,9429,-1865,78723,8044,19,-1440
9439,3613,-1707,8562,-1641,73277,8320,190,-1395
9439,3618,-646,8289,-219,67024,6081,472,-1270
9439,-3614,906,10932,1231,58614,-4269,-816,499
9439,-1758,904,10309,108,54056,-4197,-636,361
9488,-1921,-1615,13311,7465,61483,-539,-1115,2988
9488,-5179,-3913,11766,3867,63231,7648,-348,3181
9488,-8751,-2040,11655,5404,56575,1708,-828,3244
9488,1284,-1239,8863,1450,55372,5843,676,-1127
9488,1324,-1287,8770,1251,52020,5381,632,-947
9488,3246,-3373,9030,1964,56375,12228,1156,-1796
9488,4073,-2412,8660,2524,52549,10775,887,-1612
9488,-1417,-2480,11336,1385,49622,5553,117,-1173
9488,-107,-1709,10575,1060,46340,4923,185,-1174
9488,2586,-290,9643,1035,41511,2374,46,-1479
9582,3235,247,10159,-927,29165,1565,138,-407
9582,2353,-283,9111,-1088,29116,3163,-102,-618
9582,-1874,1678,11614,-1095,22301,-7305,-4377,7965
9582,-1033,1514,11082,-220,21238,-7216,-3875,6859
9582,-1971,-1346,10171,-2043,29911,8336,2632,-2898
9582,326,-436,9365,-1074,27663,6315,2354,-4423
9582,-1679,-2729,11336,-1148,24094,2459,446,-581
9582,834,-2180,10870,-3199,24085,3185,551,-938
9582,2345,-838,10249,-2238,21664,408,212,-1327
9582,237,-3707,11883,2622,30593,8179,1371,-611
9631,1674,1834,11919,4267,17185,-7366,-25,18
9631,6363,-1384,10683,-319,23307,6688,1945,-1604
9631,-1642,-1191,11468,2400,22621,877,-290,1197
9631,-1991,-697,10937,3396,20968,10,-270,-192
9631,-1455,2225,12669,2212,16159,-6287,-382,810
9631,272,2348,12114,525,15369,-5940,-425,631
9631,-83,2968,11739,446,14106,-7176,-662,446
9631,-545,-3228,11755,5160,24811,4048,242,1062
9631,-576,-2777,11133,5599,23920,3016,-68,1110
9631,859,-761,11528,-1311,23261,3384,737,1234
9680,-2321,3242,14390,5025,15131,-10522,-106,-13
9680,-606,2119,13173,3196,15394,-6663,122,-329
9680,-1636,-5173,11723,-2259,32184,13924,758,14459
9680,-954,-3103,10492,-2858,28199,10523,1258,11070
9680,-1618,-1816,12981,7971,27357,3907,358,-2019
9680,-1604,-1565,12323,3228,25156,11483,1238,-2116
9680,-1268,-931,12070,64,23071,12145,1616,-2373
9680,-1437,1480,14057,54,20195,-6784,-600,-631
9680,-1632,1124,13545,1123,19836,-6306,-738,539
9680,493,-2246,13413,-3194,25904,5008,127,4020
9728,-871,692,15316,4262,21909,-3680,-141,-4153
9728,-767,1383,14513,3461,20177,-4387,-281,-4216
9728,1156,-1669,13751,-1277,26288,6184,575,-536
9728,-281,-1455,13033,-417,25233,5460,559,1081
9728,-73,-3824,13478,-2216,29583,11157,1288,777
9728,-453,-3957,13104,-942,27642,8157,881,261
9728,-2051,-1577,14403,378,23575,3942,-2929,4814
9728,-2636,-1660,14016,965,22568,3240,-2264,2942
9728,-1316,-1091,13685,2256,20747,910,-2128,1291
9728,982,2671,16122,2342,17823,-7081,-2627,17257
9775,4915,3815,15173,2721,15347,-7518,1343,-6530
9775,496,-1865,15272,929,24106,6475,1575,-2392
9775,-2221,-1791,14376,676,22806,6495,1225,-1652
9775,-4308,-1443,13848,1585,21313,5704,1210,-511
9775,-2084,-808,15045,-2211,20989,4619,-134,391
9775,-2606,-699,14951,1,20262,1921,-410,-238
9775,320,2601,17971,1760,13454,-6800,154,-2288
9775,-1163,-1443,14436,-3563,20559,10019,955,-3263
9775,-514,-55,15991,1544,23023,3302,330,1690
9775,-698,183,15318,1628,21258,4165,688,1411
9824,1332,963,17895,4684,18143,-5376,-1301,2296
9824,1236,-2354,15845,-1013,20979,3809,-388,1518
9824,-788,-1179,17544,-1644,14243,-1850,-367,2702
9824,-1713,-622,16581,-1684,13455,-1930,-198,2312
9824,-5493,-1453,15285,-6386,16470,9040,-2514,21145
9824,-4088,-966,14728,-4813,14624,6702,-2057,18662
9824,4045,-1175,16914,-1887,16092,5313,1581,-4438
9824,3863,-876,16114,-1425,14888,4896,917,-3527
9824,4203,241,15141,7,12963,3021,33,-2434
9824,5780,-2321,17370,3320,18081,9492,2347,-6602
9873,-7452,1956,16977,2227,10138,-4935,-145,-3005
9873,-4810,-792,13951,-1009,15463,5937,-104,-629
9873,-2443,-2043,17621,-54,15737,5459,407,3679
9873,-2314,-1422,16854,614,14337,4223,455,3537
9873,1937,1104,18311,7902,11028,-4729,-1284,1661
9873,1100,1065,17581,9097,11331,-5569,-888,-819
9873,-537,-2117,16302,-3377,16384,8527,2307,223
9873,-1112,-1789,15712,-3586,14063,7776,1963,1042
9873,1080,-1201,15155,-1535,12164,6523,1832,1815
9873,5063,-2379,18041,3540,13921,3684,844,-3933
9921,670,-499,17485,1471,10489,1809,-1204,6352
9921,-907,-2141,17217,-459,13723,11909,3100,-2383
9921,-863,-2113,16739,-1365,13038,11546,2635,-2264
9921,-2118,-1520,16282,-924,11137,7173,1733,-986
9921,-917,-369,17574,1991,11665,4692,2109,-2860
9921,-1291,-900,16738,1867,10666,3869,1501,-1811
9921,2588,2095,20686,5999,6940,-3622,83,-4950
9921,1678,2022,19662,5615,6913,-2574,508,-5045
9921,1849,400,17418,368,11429,7607,879,-1998
9921,1183,-40,16462,1322,11240,6658,721,-81
9970,-2358,-1828,18183,6525,9899,-1703,1454,3872
9970,-2759,-3580,16538,5398,12516,4268,1365,2122
9970,806,1428,17414,4102,11515,786,212,-967
9970,690,3514,18294,6834,4137,-11518,-909,1285
9970,7197,-522,16426,8071,9628,8138,555,-1898
9970,7794,-546,15681,5541,7791,6665,918,-2801
9970,-2294,-2612,18586,-280,10041,4767,1282,12357
9970,-2590,-1949,17097,761,9372,3224,829,8687
9970,-2826,-1553,16329,1364,8428,1832,601,4998
9970,-918,842,18464,6415,6343,-5712,-764,1579
10018,-4392,2769,18299,4509,-699,-10386,-559,1719
10018,-1433,-1834,16154,-2077,5901,9840,1173,1277
10018,-1121,-1595,15296,-1292,5402,8948,655,2530
10018,378,-1031,14748,279,5939,7090,-232,4377
10018,-95,-1775,16881,8086,10921,1856,80,-2177
10018,532,-906,16132,9115,10009,1122,941,-6885
10018,-142,-2700,15553,1122,10590,10991,2269,-1222
10018,-305,-2361,14459,-459,8817,9709,2396,-957
10018,-1651,-1161,15483,1267,5950,5537,-1654,9693
10018,-693,-1343,15259,470,5631,5428,-1413,8457
10076,46,1309,17739,7162,3341,-7806,861,-2773
10076,1689,2202,20356,7005,-2388,-13656,378,-1507
10076,2494,522,17973,3392,255,-5387,1112,-858
10076,1473,3637,18482,5447,-2900,-13683,192,1096
10076,-1887,-849,14253,-3803,8195,9485,2578,2546
10076,260,97,13092,-3694,5688,7797,2174,2542
10076,-126,-1006,15921,2703,10152,6396,701,-5142
10076,1644,-150,15321,3310,9276,3539,-395,-4290
10076,1909,76,13697,978,9364,8881,2336,-9485
10076,-1920,933,12646,532,8112,8207,2139,-6112
10125,-4318,2684,15520,1145,5009,-2423,-1143,4381
10125,-3801,3625,15629,3188,3086,-6456,-1647,4671
10125,-2913,805,13695,897,6961,4593,-168,3669
10125,-1727,2894,19088,5037,937,-12755,-37,1172
10125,-276,1285,17684,1463,3076,-6106,288,1272
10125,-6567,-817,16294,590,10159,9318,-89,11550
10125,-7044,-2363,16409,522,7599,9181,-716,8617
10125,-6608,-3125,16444,411,5469,8184,-552,4003
10125,306,-2189,15430,1442,9142,9440,893,1163
10125,-953,-1999,15042,3816,8438,6579,723,1303
10174,1547,422,18257,2210,2119,-3895,1526,-4865
10174,2435,-551,15492,-1735,5105,5205,2580,-7988
10174,1552,-881,13789,-3263,6561,8534,1954,-8795
10174,-977,-1837,16180,1788,7807,7369,964,4777
10174,124,-1069,15413,1421,6480,6551,847,4627
10174,-877,4120,20168,5339,-278,-14751,-1255,13871
10174,-3009,2100,18140,3615,3656,-6513,-1360,16205
10174,-1512,2839,16743,4701,3800,-6170,-1869,15145
10174,-1560,-3043,17504,-1582,9479,8492,389,1416
10174,-1908,-2844,15943,-3948,7651,7256,418,1031
10222,-1337,1581,18778,4126,-367,-6314,-811,3177
10222,145,2315,17907,3813,-1389,-7048,-878,4313
10222,275,2456,15692,3160,-420,-4100,-893,7503
10222,1198,-2725,15207,-3710,5737,9618,-1155,9390
10222,809,-1472,13646,-3110,6233,9162,-1095,12111
10222,-181,-915,16011,-1578,10274,5246,400,12242
10222,-614,72,14925,-142,9986,4950,374,10966
10222,-642,1000,13916,729,8228,4900,254,8134
10222,1837,-649,16232,-1432,4634,4787,-167,-956
10222,1455,-2572,14022,-2630,8001,12211,817,544
10270,-1277,1966,17896,3460,1706,-6732,-1323,-2009
10270,899,168,15618,1381,4417,622,-865,-2075
10270,607,-818,13671,669,6590,5870,-345,-1919
10270,1183,1193,15725,1011,1962,1966,358,-4130
10270,1666,2749,16541,3776,-1611,-6943,-145,-3100
10270,941,-601,12947,-1661,8807,10946,1900,-2985
10270,1744,1761,10893,-1772,7623,8840,1806,-3397
10270,635,-1824,19473,7900,8637,5964,713,-6196
10270,-242,-1795,17254,6907,7172,6114,393,-3941
10270,1276,-2178,15637,4057,5243,4134,-117,-110
10319,364,-2366,18198,766,3691,-2349,-674,-8357
10319,-155,-4508,16001,645,8226,4350,-202,-7278
10319,-267,-2832,15291,3634,6481,-99,-872,-5245
10319,-944,-274,13684,-3199,3066,9754,2272,-3082
10319,-2578,-884,13986,-2876,3300,8994,1847,-2293
10319,387,3697,16598,4288,-1497,-12269,-287,-724
10319,-484,2494,15679,3962,86,-11966,-496,-1919
10319,-3285,2158,15352,4385,75,-13081,-967,-1930
10319,138,-719,13726,-2345,5686,10392,621,2190
10319,-492,-551,13454,-1860,4652,8579,221,2529
10368,-1527,3508,17637,646,-2503,-6908,362,499
10368,50,2529,17564,313,-1519,-4077,1088,-426
10368,-745,1352,16799,-283,111,-649,1197,2055
10368,436,-3212,15554,6092,10096,10007,109,12589
10368,-296,-1454,13923,5172,8121,8385,372,9453
10368,359,-2045,14919,-4469,5871,8903,1044,-958
10368,2084,-785,13391,-4459,5339,8397,925,-697
10368,2340,303,12688,-3507,3521,5822,327,-182
10368,995,2399,15516,1729,-2829,-6339,-790,3776
10368,1070,1794,14450,1077,-1721,-3748,-981,6679
10417,-1008,-366,15095,-1005,4334,1637,-894,4527
10417,-557,-1787,12858,-3090,5952,7545,416,269
10417,-1127,-37,13177,-369,2308,379,285,-941
10417,418,-1792,15114,-461,7410,7923,780,-3796
10417,-727,-1631,14737,765,6923,6330,968,-6005
10417,3329,-3254,12912,-6976,4714,14348,2466,-5348
10417,890,-2317,12685,-3748,3791,9682,1702,-3749
10417,-181,-1279,12389,-1053,3559,5082,994,-1332
10417,-2484,-923,13276,-10429,1390,8237,958,-621
10417,-1939,-727,11452,-8655,-268,6568,1182,-567
10465,-3596,1229,17545,561,-2022,-5744,-5656,17520
10465,-2516,1139,16325,1166,-439,-3736,-5574,17814
10465,-2568,2483,15616,3254,-1758,-7303,-4658,15736
10465,1754,-710,11454,-2173,5154,15223,636,4851
10465,2056,-489,10939,-1201,4272,10145,830,6230
10465,742,-1788,12887,-5215,3303,7907,1824,-8496
10465,1068,-1645,12337,-5373,4563,8515,2759,-9455
10465,869,-246,11215,-1876,4363,5065,2490,-9174
10465,-554,-2941,14265,-648,3443,1108,979,140
10465,-1385,-5535,11690,-3740,8333,12323,1733,227
10513,-580,546,14425,1213,-706,-6779,-1363,-1996
10513,-1039,438,13588,-689,389,-4389,-936,-1690
10513,314,-877,11349,-4791,2711,3052,-267,-1181
10513,-2216,509,12763,4589,1955,-4097,-378,-3789
10513,-1086,684,12214,3233,913,-4043,-562,-4197
10513,-763,744,7527,-2669,3889,10449,-1325,9649
10513,-1766,1683,7507,-3056,3259,14488,-596,11589
10513,-694,-3119,13242,-3461,4809,-352,-1782,703
10513,-1799,-2692,12546,-3392,4687,307,-829,-267
10513,-788,-808,11043,-1449,3461,-2263,-498,-1225
10562,1366,-1393,10870,156,3866,7790,884,209
10562,1790,-781,10185,750,2818,8336,1015,-176
10562,1383,2334,11371,3793,-2774,-3603,285,-60
10562,-2357,-2595,9318,-2429,438,2641,372,5947
10562,-3725,-2461,9793,896,8,-46,28,3569
10562,2696,-3748,13959,2621,530,-7834,-2191,1758
10562,29,-3585,13681,1615,675,-6782,-1525,1156
10562,-557,1046,13484,3761,-3757,-17638,-2460,989
10562,2969,-1371,8436,-1084,6471,7541,714,390
10562,2991,-944,8346,-438,4593,5353,418,-1091
10611,-3370,3866,9648,571,-5996,-11680,-1032,-159
10611,-3577,3075,9927,583,-5101,-12773,-1133,3107
10611,-3354,1618,9434,-527,-2642,-9828,-906,7192
10611,-1507,-355,8263,3627,7656,11055,-551,1719
10611,869,-750,8542,3248,6845,8838,-561,2822
10611,660,-998,7163,-1024,4190,6934,-394,4464
10611,1029,-145,6377,-3830,2197,7354,797,913
10611,616,716,6350,-4103,1100,4924,1016,-1752
10611,229,970,8342,1767,911,-1246,941,-3659
10611,396,1488,7870,2153,838,-2024,813,-5496
10660,-1268,584,8256,-381,-1476,-1712,185,716
10660,-410,-1715,6548,-1880,2218,6952,-74,3727
10660,184,-1085,7073,1211,1391,2431,-1389,7788
10660,-1809,3330,8204,-2609,-3128,-7300,-162,982
10660,-2089,3455,8366,-1863,-3569,-7946,239,-726
10660,3056,-3319,6815,-3389,4827,8813,2318,-5669
10660,1990,-2938,6373,-2909,4584,7359,2071,-3652
10660,-600,-2143,6242,-2062,3263,4387,1367,-1542
10660,-2661,-560,4726,103,2510,5618,908,4775
10660,-2380,-235,4275,1972,1733,2557,840,2952
10707,120,4264,8366,9067,-4371,-11854,-1928,-3886
10707,892,-290,5168,3605,2273,5683,-212,-2428
10707,-368,-1434,4362,2406,4729,8898,367,-1318
10707,-2361,-4675,7267,3286,6973,4132,867,-6939
10707,-1413,-4420,6751,772,6299,5755,1338,-7068
10707,30,-2783,2368,816,5524,5556,304,-4049
10707,1501,-1976,2226,-833,4712,5243,612,-2552
10707,1630,-2184,4814,-3918,5835,9244,1056,-2133
10707,1028,-1385,4845,-2125,4831,6401,960,-4333
10707,2575,-120,5263,-199,2988,3523,1104,-5316
10756,-67,-241,7274,12032,2233,-12143,-1049,4903
10756,337,-2067,5465,9746,6276,-477,81,2472
10756,157,-584,5246,8794,4957,487,345,144
10756,1019,1595,7218,-1682,-4492,-7522,-2460,9154
10756,771,3195,7190,1022,-6378,-12650,-2023,5488
10756,-6111,-1581,2815,-1537,3645,4287,-710,14213
10756,-3955,-1175,2534,-2460,3299,1004,-1252,10405
10756,381,-364,3711,-2399,2527,5640,1012,-2440
10756,1237,-305,3280,-1659,1368,3581,49,-1667
10756,676,697,2744,-856,251,773,-73,-1439
10805,-794,-626,3140,-3627,1298,4555,-4188,12785
10805,-1223,-596,2876,-3580,2283,5892,-3001,9511
10805,433,2365,5093,1120,-1788,-7372,-3170,6019
10805,-2630,-2780,2662,-1653,1953,4219,-2693,10059
10805,-1593,-2785,2599,-763,1496,3540,-1959,8094
10805,-836,-345,6169,-2089,-2011,583,1476,-3034
10805,-2080,-3501,3916,-6138,2658,10355,2553,-4959
10805,-674,-3683,3068,-5816,3395,9780,2644,-6292
10805,-1675,733,1799,1213,1444,-1163,155,-2480
10805,246,1714,2694,2992,700,-3493,76,-3688
10853,-1054,5067,3181,840,-5163,-12145,-157,5985
10853,692,4234,2781,457,-4187,-9441,-414,7518
10853,1147,3847,2186,416,-3644,-7575,-894,7073
10853,-2341,-2479,1635,-2436,3168,7119,1142,-6377
10853,-1993,-2304,1878,-955,2574,3864,1188,-6620
10853,1539,1247,1978,484,5275,3929,1730,-6345
10853,1507,1097,2326,-2184,5922,4604,1530,-4776
10853,977,2372,3322,-1454,-4409,-12069,584,-11245
10853,-441,-2122,1647,-4665,3269,4629,2012,-6738
10853,776,-3413,1255,-4373,6063,9866,2970,-4204
10902,-132,-15,3139,2046,843,-4521,-2953,741
10902,-1603,-2462,2647,-761,3098,3132,-1985,937
10902,-3081,-1117,3663,737,-267,-3532,-1886,1266
10902,803,7999,-1711,2886,-656,-7014,1111,-5020
10902,820,7520,-670,4501,-1533,-8114,776,-4581
10902,-425,-5037,4252,-484,1645,4750,208,-6576
10902,903,-4476,3328,1926,2744,3418,-227,-5336
10902,-648,-2364,1595,3235,2767,2250,-1133,8779
10902,937,-2148,1696,2614,2940,4368,-539,213
10902,1032,-1357,1598,1076,2139,7259,-87,-5833
10950,-441,2513,2390,1425,-1555,-2764,-427,1367
10950,-380,1351,2438,-41,-845,-2630,-986,1937
10950,31,-1428,1152,-1531,1819,3232,-380,1949
10950,573,-3849,2072,3502,3421,-1735,-1189,-2764
10950,2645,-3719,2058,4363,3929,-2512,-876,-2909
10950,2624,3782,82,1496,-2988,-7143,282,-4901
10950,1077,1992,526,1033,-2481,-7178,82,-5658
10950,3605,-1757,1167,-592,4193,4955,-1055,9139
10950,3881,-1722,1680,-5724,3115,13395,616,10856
10950,2861,-1038,1693,-7403,1385,11852,1275,8295
10998,-773,1950,1160,1553,-2538,-10877,-397,-3805
10998,-426,3455,2021,3431,-4784,-17950,-1160,-2954
10998,-1270,2811,1945,3569,-3651,-16876,-993,-2317
10998,777,-4081,-1004,-5973,5314,14360,1469,-3138
10998,-538,-4059,-718,-4461,3366,11074,1100,-3406
10998,484,-831,-411,-3095,808,2180,-666,-2055
10998,-226,-596,-342,-3801,-189,1029,-704,-2992
10998,1072,2796,1832,-286,-3865,-10153,-1383,-2062
10998,2385,1680,2385,-87,-1911,-7796,-1614,-1152
10998,1624,-356,-1540,2286,1117,4348,1187,-4307
11047,5335,-1065,-42,-4704,2479,3005,-1897,13575
11047,3906,-1518,38,-4727,2977,2213,-2338,20775
11047,4482,830,2727,1690,-1536,-10083,-3412,23097
11047,626,-760,40,841,4897,890,-42,-8221
11047,160,-748,-178,762,3604,-580,167,-6329
11047,2075,-5030,411,6726,6309,8425,709,-3133
11047,2328,-4953,925,2774,5270,7628,378,-1510
11047,-2147,-1205,-1357,519,3272,1090,-139,-4287
11047,-2804,-1338,-749,1666,3649,-661,-595,-4277
11047,-1955,-1028,12,2711,2504,-3857,-1381,-3798
11095,2632,2660,2403,6958,2145,-11057,-342,-3477
11095,1034,2519,1415,4107,-257,-9083,-716,46
11095,-938,-1378,-983,-2632,1071,10024,99,7151
11095,-1894,-892,-939,-2106,1162,7271,25,6635
11095,-1241,-603,-249,-1141,726,2950,-232,5306
11095,1529,-2001,-586,1913,185,-5609,-1561,-1756
11095,2598,-1562,-387,2863,299,-5836,-2898,-350
11095,-1742,-4871,-365,-7082,5303,8455,758,-6882
11095,-3122,-4146,30,-7241,4505,7451,232,-5449
11095,436,3014,-2199,1223,467,1187,431,-5556
11143,-1171,900,-1738,2694,-1771,-4398,-399,-2119
11143,735,3215,-849,4330,-4426,-12876,-1666,-647
11143,3403,3987,432,6317,-2862,-8014,-2587,6150
11143,2927,3516,956,2246,-2637,-3721,-1539,5123
11143,1733,3027,1866,-5401,-1891,-1052,-471,3073
11143,-3290,-4235,1844,-3977,2633,1817,-272,-9088
11143,-3313,-3706,2315,-1593,3061,-468,-619,-9430
11143,1257,-1950,-163,4361,2552,-1864,-484,279
11143,-413,-2074,433,4901,2689,-140,58,-3158
11143,-1214,-3786,-1106,-875,6811,8134,-1011,2292
11192,-2328,-2087,318,1558,996,200,607,-2059
11192,-958,-3516,89,224,3115,4556,740,-157
11192,2537,-277,920,-626,4421,3467,-797,2696
11192,3210,-249,579,-139,3376,1352,-613,-1322
11192,-1424,1969,541,-1614,-4033,-9705,-1439,1819
11192,1096,1237,380,-1387,-3616,-9616,-1059,3420
11192,1534,1303,695,-935,-4078,-9701,-441,3946
11192,3005,-806,-1572,1435,354,-761,472,-9254
11192,1075,396,-2646,2339,-55,-2124,1385,-11681
11192,-4453,-1122,-363,435,2374,5641,785,156
11241,-2454,1386,3431,7080,-4934,-18768,-2584,-1190
11241,-3351,219,3078,4166,-2505,-15005,-2532,-15
11241,-1194,-3910,-734,1328,4734,8895,1884,-6327
11241,-937,-4332,-151,2148,4157,7292,1829,-5840
11241,-413,-2658,-156,329,-1721,-642,-605,-4605
11241,276,-2064,-375,-111,-1565,-576,30,-5222
11241,1124,-1133,-661,-766,-2012,-142,620,-4266
11241,-1151,2192,2020,1095,-3873,-9840,-956,2128
11241,-1655,2364,1261,-2239,-3945,-7725,-1188,4360
11241,-34,-2507,-1481,-1033,2823,2286,-2123,1498
11290,142,233,-672,-4629,83,1981,-162,1885
11290,-761,-1013,-1387,-3138,2179,3849,366,-2655
11290,-1589,1096,258,-1393,1768,685,-168,-1540
11290,462,3210,804,-63,-1714,-5958,-837,-1165
11290,2350,470,-5065,-3888,2438,14769,1627,1217
11290,1825,1467,-5740,-4003,2980,8630,312,4253
11290,2498,2910,-6042,-3553,2949,2858,-517,6500
11290,-960,-821,-681,345,988,1436,1559,-2763
11290,439,-34,-525,-102,1195,1030,2201,-5545
11290,672,1778,-261,-1941,-2370,-6784,-648,-2880
11338,-1967,1129,1119,3214,-2573,-9192,-1293,1621
11338,-1380,223,2345,5013,-1334,-9776,-287,-2159
11338,3486,364,-374,-374,4945,13019,1792,-9276
11338,2567,-976,1495,773,5203,9734,2281,-9108
11338,-760,-1323,-989,620,2933,-5133,-6119,14855
11338,-1799,-754,-1127,991,2397,-4871,-4572,10314
11338,-792,454,-1075,2924,940,-6231,-2867,4611
11338,-3602,-3247,-1891,3700,5135,5637,640,1115
11338,-2875,-2690,-1521,-743,3924,6456,1686,-2241
11338,2924,30,-868,-950,888,2014,930,-6600
11387,-2660,1623,2663,885,-7057,-14795,-117,-5669
11387,-3496,-24,1690,-335,-5944,-10619,17,-4810
11387,828,-5597,-2885,-2891,6271,2952,-165,-2211
11387,-1011,-6618,-1765,-384,5799,-216,-1037,-2104
11387,2019,-244,-1435,-1009,2899,3305,489,-6075
11387,-129,-832,-1051,-32,3079,2927,-66,-5158
11387,-1103,-780,-606,1218,2619,691,-702,-4791
11387,1604,1413,-2244,-2632,726,7545,-652,-5714
11387,-724,2259,-1675,-2599,155,3087,-1324,-874
11387,1070,-905,-135,1391,2694,-44,51,-3981
11587,1497,409,-2994,-2112,1249,-2469,300,-5893
11587,-1280,-1558,-1116,-1859,859,1666,-392,-7727
11587,24,-1087,-1017,-2923,375,1335,-228,-7334
11587,2488,-2035,-969,3533,-2696,-2882,-1284,-5110
11587,2968,-1077,-1503,-1707,-3776,2020,-498,-2963
11587,2424,-210,-1181,-6823,-3294,2427,-784,1160
11587,1088,-1264,-1596,115,4037,4511,661,-4897
11587,1510,-711,-1760,-345,3262,5024,438,-5070
11587,2460,625,132,-786,2689,-1424,40,-5669
11587,1607,56,1436,37,2728,-1633,351,-4578
11635,-70,3945,-1248,1634,-3460,-7120,-1933,-6840
11635,-223,3135,-1766,599,-2464,-5950,-1657,-1490
11635,-634,2742,-1789,890,-1260,-7357,-1942,3143
11635,382,-1931,213,-2124,1835,33,-1632,3658
11635,-216,-1837,-329,-2082,1430,-627,-935,1630
11635,-1288,-1157,-1055,-948,-1592,-235,-2391,4223
11635,-428,-1288,-290,-268,-223,-590,-1506,2954
11635,903,-1189,1238,847,672,-2270,-903,1225
11635,-1501,-2798,-2333,-4959,2325,9287,1582,-3644
11635,-1681,-3080,-1249,-3465,3298,9332,1889,-4034
11684,-577,-750,-317,-996,3596,-739,-888,-8625
11684,-1646,-2818,279,-5457,3156,3336,-672,-3614
11684,-505,-1150,2733,-3718,-1382,-2536,-705,2569
11684,-1812,-1343,1569,6350,759,-9165,-1730,-2457
11684,-1266,277,2126,7291,-818,-12270,-1672,-3069
11684,-38,-1034,-2514,-2125,1832,1155,996,-5663
11684,-236,-801,-2330,-5519,546,776,630,-6015
11684,-50,-194,-1382,-5074,460,-1386,63,-6474
11684,641,-2110,-273,4310,1223,179,203,-2469
11684,268,-1021,-238,4083,1101,2992,374,-918
11733,710,1892,-1970,5485,1100,-7913,-1253,-4741
11733,1672,-442,-2875,1656,2587,295,-553,-3889
11733,163,674,-1698,2781,929,-4920,-1207,-1697
11733,158,1365,-932,1740,1009,914,-1427,6781
11733,172,957,-1303,3251,1438,625,-1289,5086
11733,-135,-872,2507,3810,320,-11062,-3506,4296
11733,-1942,773,2813,7463,-2754,-19273,-4680,6194
11733,-2018,3095,3340,9040,-5927,-25707,-5215,7453
11733,-248,-1127,-2118,1718,2531,5244,1018,-3267
11733,1265,-864,-2013,1428,2313,3697,911,-4045
11782,-692,3539,1469,844,-3366,-9812,-1776,5868
11782,-538,2973,-17,-247,-1884,-5656,-490,3292
11782,-67,3547,-535,-266,-2340,-6153,297,-277
11782,1798,-1417,-1119,-6899,2920,15328,1703,-4536
11782,1080,-1366,-71,-6842,2885,13706,2275,-5134
11782,4459,357,-2646,-2236,2623,4917,1968,-8610
11782,4443,449,-2459,-911,2314,5109,2068,-8339
11782,5730,715,-1963,2420,2090,3020,1659,-7006
11782,270,2570,1946,7394,-2784,-17728,-920,-4496
11782,672,2475,2569,6684,-3158,-18331,-1178,-3937
11831,612,1719,1117,-4748,-2447,-4743,2083,-5880
11831,-499,-253,436,-5417,972,1926,2425,-6145
11831,1466,-119,-793,-1303,1314,-1185,513,-2943
11831,22,473,-1335,1720,-3325,-10548,-2955,5262
11831,-289,245,-1577,2567,-1389,-8957,-2532,3427
11831,-2853,-2309,-1935,-3659,1330,10898,1030,16
11831,-1956,-2680,-1301,-1628,2081,7753,594,82
11831,-1918,-2419,-1094,476,2242,5035,614,-718
11831,-1394,-1254,-1541,1225,1648,-2692,-257,-995
11831,-657,-419,-2128,3496,323,-3037,41,-4702
11880,936,-1187,772,4615,3550,-2184,-777,1915
11880,-905,-4512,111,7,5449,6410,-257,4111
11880,-864,-4022,728,-465,2903,2748,-307,4667
11880,284,-555,-2341,4391,5725,2157,1413,-5175
11880,487,-1124,-1186,3555,4833,1537,598,-2050
11880,-47,-387,429,1810,-1677,-8436,-897,651
11880,-116,-368,341,-162,-663,-5911,-337,-131
11880,-160,649,52,296,-971,-5958,-448,-556
11880,2000,-1493,-1576,-644,1114,4818,399,-1262
11880,754,-1953,-2904,604,1889,3564,-148,-918
11929,237,1967,-439,-827,-5266,-11815,-653,-2097
11929,-332,1961,51,1072,-4678,-12728,-505,-2117
11929,-1145,1141,349,297,-2639,-8855,457,-2765
11929,250,1410,-2380,3361,-3357,-4950,164,-2951
11929,961,-1002,-3694,1010,1276,4525,1126,-3470
11929,-1900,-678,-2862,-7155,2641,11556,1615,270
11929,-341,-135,-3080,-5370,2478,9529,1494,2405
11929,-202,165,-2864,-3401,2031,6148,45,8023
11929,2181,-505,2399,5104,-7,-15638,-2183,-7653
11929,2413,-427,2883,2988,135,-13308,-1081,-7190
11977,-3318,678,-18,5328,-2120,-9845,-523,1567
11977,-3343,-1990,-778,1859,1059,-1094,-339,3866
11977,-1185,-3076,-1207,-14,2539,3335,-796,7776
11977,-558,-3841,-141,-321,4003,4534,-404,48
11977,-1889,-2776,-476,-356,3870,3087,33,-109
11977,-488,-2486,-3038,-5202,6311,15022,254,12199
11977,921,-2736,-1721,-4920,6356,13467,190,10842
11977,800,-2346,202,-2914,5432,8415,-146,8026
11977,1715,-1618,377,706,2719,-3205,33,-8135
11977,1828,-1806,743,1428,1451,-5198,-695,-5895
12024,669,1622,-159,4510,-2168,-14314,-1489,-1868
12024,-987,1309,-1162,4322,-790,-8185,-1742,-3689
12024,-2315,1529,-1201,4067,-442,-4269,-1947,-4482
12024,-1569,-2201,-1465,-1882,1453,7726,-75,2424
12024,-1473,-1991,-1512,-1066,1105,5043,-407,3164
12024,-1621,-2183,-1617,-3279,493,3669,-312,2392
12024,-910,-1946,-818,-2005,795,2914,-150,-632
12024,-1207,-5490,-1347,-3467,4803,7767,919,-1371
12024,-28,-2614,-1762,-1336,3363,3669,308,-948
12024,-1466,-419,-1650,1039,2883,-712,-184,-1136
12073,-575,1906,1479,6526,-2093,-11835,415,-5080
12073,1149,-1065,-2452,2679,1410,1845,1835,-3368
12073,704,2051,-2140,4855,-2084,-6896,1268,-1714
12073,4017,826,-1107,-2707,-3891,-7137,-152,-6527
12073,3002,908,-1753,-2761,-3129,-7609,70,-8974
12073,-721,-862,-4503,-440,1754,6347,722,-996
12073,-1043,-58,-4355,510,1119,5395,1075,-3851
12073,-3334,-2162,182,1900,4182,693,-1384,-1751
12073,-3179,-1084,-103,2340,3767,202,-321,-2140
12073,-1355,-2950,-986,-1354,3111,3426,-617,1238
12122,-4624,916,-314,101,37,-4875,-1884,5895
12122,-2315,590,-2984,-2611,2199,2960,-1655,7843
12122,-1566,-1617,-1654,1980,1863,187,1242,-5849
12122,-856,-642,-1658,3258,976,-99,825,-4183
12122,32,26,-1351,3234,-332,-1663,-25,-2489
12122,1182,1996,240,-399,-411,-6166,-1025,-511
12122,2462,2802,-220,-120,-1803,-4898,-381,-213
12122,-2486,-2074,-2208,-579,2511,1159,-923,5964
12122,-2026,-1434,-1909,-266,1197,-1889,-1222,6188
12122,2173,170,-1525,-3746,-586,-340,-961,-921
12171,-2192,1560,248,2591,-2581,-8144,814,-5500
12171,-122,1715,540,3814,-1672,-9397,587,-5810
12171,-2103,-2340,-2373,-30,5840,7067,-1633,13571
12171,-2649,-1573,-2714,758,4863,5312,-2152,16572
12171,-717,-771,-2425,1171,3502,3507,-2370,18008
12171,-249,-539,-1742,-119,-167,2321,-982,2194
12171,1059,-320,-784,908,24,1666,-861,515
12171,-254,4502,-2894,2305,189,-4912,303,-3627
12171,80,3306,-2937,2703,749,-4761,372,-4305
12171,759,156,-3504,487,2778,-953,859,-2649
12220,993,-255,-498,424,1084,5464,-1319,-5094
12220,2524,-1891,-1385,-3406,3602,11952,-1070,-3927
12220,-827,-172,-1627,-601,1869,1869,775,-6026
12220,151,-172,-924,-185,602,-1199,899,-5165
12220,-635,1927,685,1201,-3818,-11306,511,-3789
12220,2819,-3052,-2976,-3681,5579,12244,1153,-3693
12220,3130,-3044,-1728,-3348,4662,9549,1381,-2977
12220,2141,-463,-2129,-750,2086,840,-388,-3930
12220,3772,271,-2434,289,1427,-1464,-463,-1578
12220,-442,2876,-2358,2902,-868,-5920,707,-2517
12269,-883,1957,-1668,2561,-1318,-4681,-1934,1064
12269,-689,-2823,-2042,22,2014,3757,-1057,1430
12269,119,345,-2693,-1434,-198,-1029,996,5408
12269,1037,249,-2228,-516,-173,-1534,137,7548
12269,220,1054,-2356,609,-1254,-3889,-1068,10433
12269,-732,-482,-338,-1929,-3090,-5326,-339,-3437
12269,-500,2393,235,1652,-4814,-14196,-1016,-2951
12269,1234,-923,-2646,-2076,2551,6322,607,-1052
12269,630,-595,-2103,-1105,2501,4495,131,-1249
12269,-3211,-4956,1501,1534,2574,2686,135,1247
12318,-2026,2367,-550,6691,-3662,-10405,-1951,1489
12318,-2626,2977,-395,5454,-4175,-10108,-2475,1529
12318,-2417,2168,-321,1709,-2673,-5885,-2115,1707
12318,-68,-2572,-5317,-1172,6188,4812,3739,-10140
12318,-458,-2685,-2993,-2226,4838,5124,2960,-8376
12318,1640,58,-2219,-5158,3591,13426,1139,-2942
12318,2921,-189,-1643,-4909,3402,8963,563,1137
12318,-2177,367,1113,1233,-1253,6097,979,-580
12318,-2417,2288,1239,2053,-3477,-3013,786,-126
12318,-3275,1895,689,962,-2906,-5085,552,66
12367,-3196,27,455,612,-1469,-7313,-419,-7330
12367,-2682,-1902,-1091,-3636,760,1604,801,-9118
12367,-36,-362,-1036,-2578,-388,-2223,690,-8998
12367,57,-3130,276,-1184,2381,4323,-1629,3352
12367,2553,-1913,-249,-2650,1145,2359,-1602,2201
12367,-440,-1929,2900,-37,-846,-10055,-1381,1718
12367,-1029,-4410,905,-2268,4357,1738,-119,826
12367,517,662,-1885,5207,4971,-5136,-76,-6990
12367,-446,1151,-2625,3114,4875,-1154,439,-4742
12367,817,1598,-3049,1777,3540,3953,1142,-4049
12415,-645,3064,-2468,1414,-1036,-11807,-2863,544
12415,617,1672,-1461,-442,-1241,-9384,-2440,-704
12415,-3373,-2382,-1720,520,3424,2078,-3937,16280
12415,-2077,-1690,-2571,509,2952,1774,-3477,16703
12415,-2951,-1718,-2576,-335,2122,1814,-2740,14374
12415,519,820,-4558,-1442,-521,350,1361,-9142
12415,-1980,612,-3618,339,-185,-1055,1669,-8939
12415,647,2104,-2566,4014,2687,-7222,-170,-3626
12415,873,-1506,-3724,-362,5844,4729,983,-4133
12415,-1772,-2383,-1247,-6011,-1304,869,444,1417
12464,-731,-2877,412,-1984,3843,5235,1559,-2437
12464,-446,-3243,551,-2101,3672,4053,1752,-2478
12464,-380,516,2371,3285,-377,-9750,361,-1087
12464,-1206,-499,51,4107,-615,-3090,878,-2870
12464,707,1914,1569,5820,-3610,-11339,319,-1780
12464,-3768,-3262,481,-2458,2514,4203,692,150
12464,-2623,-2317,202,-940,1585,2334,918,-936
