timestamp,ch1,ch2,ch3,ch4,ch5,ch6,ch7,ch8
66,0,0,0,0,0,0,0,0
66,-704324,718108,373315,-2244311,-318898,790189,689945,-664576
66,-662316,675154,351170,-2111643,-300750,742654,648616,-624456
66,-622890,635389,330521,-1986822,-282958,698496,610222,-587384
66,-585948,596945,310604,-1870036,-266641,660784,574616,-552783
66,-551010,561938,292233,-1759121,-251246,620463,540533,-520131
66,-518762,529570,275235,-1654199,-236649,580551,508277,-489320
66,-489706,497753,259445,-1557409,-222020,547477,478490,-460595
66,-459859,468724,244656,-1464931,-208103,513457,449927,-432853
66,-434737,442746,231251,-1375918,-197352,475050,422644,-406169
114,-406943,417987,218695,-1293058,-187378,440526,396910,-382235
114,-384055,392554,205505,-1217434,-176465,417654,373622,-359827
114,-360484,366132,188868,-1149801,-164449,408794,353193,-339632
114,-339044,344428,177817,-1081808,-155312,384175,332238,-319463
114,-320807,323268,168102,-1018184,-145221,360245,312433,-300582
114,-300550,304781,156848,-957557,-137122,337592,293920,-282293
114,-282830,286359,143532,-903688,-131369,328899,277187,-265819
114,-264896,269594,134486,-849785,-122602,308188,260844,-249864
114,-250423,254438,128390,-798256,-114691,285499,245104,-234658
114,-236711,239914,125233,-750287,-105496,266550,230374,-220751
163,-221315,225616,119013,-705202,-100323,244603,216407,-206893
163,-208438,210848,111463,-664658,-93764,235536,203971,-195190
163,-197977,201524,106407,-621424,-90634,207004,190688,-183253
163,-184641,189628,99624,-584879,-85663,195490,179548,-172240
163,-175330,174280,92937,-554250,-77194,198451,170171,-162684
163,-165779,163956,87558,-521195,-72699,185919,160046,-152993
163,-154076,154891,82503,-489873,-68615,172814,150594,-144144
163,-144573,146096,78173,-460781,-64306,162995,141860,-135465
163,-135930,138243,72919,-433030,-61137,150695,133241,-127168
163,-127497,127517,66999,-410663,-56126,154430,126255,-120840
212,-121958,123713,70566,-380712,-54176,126865,116874,-109850
212,-114729,113412,64286,-361358,-50263,131199,110850,-103355
212,-106200,108431,54405,-341287,-49617,121969,105110,-101431
212,-98902,101889,51657,-321287,-46331,114277,98867,-94958
212,-95624,98568,51461,-296647,-44196,94918,91779,-86932
212,-88372,92469,48607,-279081,-41328,89836,86440,-81709
212,-83245,87017,45999,-262327,-38783,83615,81098,-76741
212,-78466,78413,40539,-252352,-34724,93423,77758,-73742
212,-73680,74685,38406,-236506,-32900,85166,72966,-69449
212,-71404,70576,36117,-223211,-30365,81642,68410,-65035
261,-65571,70153,37857,-203903,-30822,52424,62758,-60455
261,-61701,65829,35055,-192664,-29406,51227,59275,-57073
261,-59514,57009,28813,-187766,-25489,74308,57599,-54165
261,-54797,53915,27199,-176387,-24640,68453,54105,-50736
261,-52732,50488,26946,-167011,-22077,61579,51043,-47487
261,-47792,47678,25308,-157369,-21024,57656,47968,-44407
261,-44699,45329,24015,-147571,-19936,52397,45018,-41518
261,-43400,45289,24090,-133697,-20239,38411,41444,-38281
261,-40924,42450,22655,-125849,-19044,36145,38990,-35901
261,-37776,37066,19591,-123184,-16148,47700,37809,-37082
309,-35688,36426,19215,-113915,-15806,38004,34922,-31831
309,-33216,37214,19546,-104034,-16113,23840,31937,-29864
309,-33326,31059,16607,-102016,-13062,39087,31339,-28830
309,-29802,29807,15865,-95630,-12616,34761,29315,-27147
309,-29529,26547,13822,-92166,-11606,41138,28209,-25548
309,-28501,25280,13115,-86482,-10964,37933,26467,-23981
309,-25197,24499,12578,-80707,-10450,33417,24765,-22322
309,-22959,24377,12200,-76042,-9753,31336,23372,-21207
309,-21466,22988,11438,-71931,-9335,28797,22012,-19893
309,-20145,24695,12913,-67114,-11777,15026,19319,-18892
358,-21854,20769,10573,-62612,-10370,21280,18343,-16117
358,-18584,17725,9072,-60377,-8762,26896,18099,-16098
358,-17498,18125,9017,-60420,-8308,25533,17735,-15838
358,-15080,17588,8807,-55125,-7876,21565,16602,-15308
358,-15809,16981,8580,-50333,-7271,18923,14908,-14273
358,-15116,16358,8195,-47135,-7039,16938,13888,-11802
358,-15249,18539,9378,-41095,-7705,3530,12085,-9465
358,-13613,13579,6166,-47756,-6906,24513,13591,-10132
358,-14549,12833,6200,-44199,-6286,21571,12626,-9267
358,-12373,13335,6589,-37407,-6079,16138,11358,-9667
407,-7806,18802,9022,-29725,-8354,-7937,9698,-11313
407,-8903,16978,8187,-28563,-8048,-4466,8995,-9475
407,-11399,8304,4747,-34855,-5559,25420,9896,-7559
407,-10471,7690,4455,-32639,-4605,24377,9541,-7244
407,-6961,10115,5543,-28951,-5041,16089,8460,-6531
407,-9251,9308,5252,-27297,-4470,15995,7696,-4820
407,-9181,9006,5089,-26192,-4179,14920,7375,-3546
407,-10934,9278,6125,-24086,-3705,8349,7072,-2185
407,-8389,12242,7672,-18972,-5000,-6364,5665,-2749
407,-6894,7582,5047,-23747,-4144,14679,6353,-3071
456,-6379,7873,6399,-21124,-4205,8568,5525,-6397
456,-5372,6214,5334,-21183,-3611,12812,5582,-7244
456,-6097,6539,5388,-20726,-3605,13560,5791,-5333
456,-5615,6289,5230,-19077,-3503,12002,5421,-5483
456,-5652,6432,5491,-16818,-3415,7959,4710,-3907
456,-6356,2907,4916,-15677,-2118,16379,4181,-2942
456,-5730,3278,4990,-13118,-1878,11822,3971,-2833
456,-4107,4705,5945,-13532,-2647,8919,4245,-1781
456,-4116,4794,6074,-11895,-2472,6549,3850,-1206
456,-462,5637,7066,-14104,-2735,5765,2251,-10727
504,-8552,6870,8814,-8663,-4662,-11268,490,266
504,-6785,6648,8531,-7828,-4394,-11160,876,-1213
504,-6808,2139,5993,-14363,-2070,13126,3372,-1065
504,-5558,2362,5897,-13019,-2154,11351,3119,-1913
504,-3446,3003,6794,-10063,-1474,9520,4250,-653
504,-456,2839,6442,-9887,-1334,8744,3900,-2462
504,563,2797,6446,-9378,-1439,6803,2793,-1558
504,-6063,1034,7015,-11187,-1341,11338,2258,2295
504,-4504,1304,6938,-10432,-1325,9493,2154,3298
504,-4181,1205,8499,-5694,-978,6029,1391,598
553,-2030,4444,9516,-5500,-2482,-2380,1125,206
553,-2940,1644,7496,-7996,-1483,8967,2428,-2453
553,-2962,3831,12002,-4916,-2591,-7343,-425,-2368
553,-9572,3173,11487,-4640,-2455,-7317,-350,3294
553,-11540,3684,11399,-3311,-2439,-10672,-343,5934
553,-1737,-685,10049,-7897,-47,13668,1525,6073
553,-2229,-259,9778,-7226,-40,12775,2257,6313
553,696,130,11182,-10921,-399,9345,1105,4836
553,-572,-273,10940,-10698,-254,8735,881,4697
553,-1462,-933,12181,-7486,12,6333,2547,1694
602,4055,3023,15189,626,-1219,-3937,-913,11689
602,4796,464,12175,-3458,-781,7888,1154,11656
602,-2218,-1187,14062,-3155,60,7706,8469,-7129
602,-3324,-1115,13367,-2738,166,7733,8921,-5899
602,-2518,-490,12853,-2887,72,5433,5253,-4408
602,-4514,1950,16705,-3448,-1886,-5135,-930,-1184
602,-4554,1494,15942,-2902,-1500,-5046,-1577,-806
602,1877,-1453,16087,-8296,179,7367,-3203,-2746
602,2843,-1394,15557,-7363,235,3983,-5875,-4406
602,1782,-1529,18231,-4165,533,8854,76,-8595
651,3217,4957,20726,-660,-2636,-11514,-1542,-5508
651,-2758,2607,19613,-1481,-2034,-6409,-1843,-1289
651,-82,-3767,19157,-13256,-478,20084,2953,15715
651,179,-2953,17998,-12568,-510,17454,2973,16047
651,-460,-1989,17532,-10542,-348,12375,4035,14904
651,-10226,-2918,21627,-2456,1713,7469,2212,2080
651,-6324,-2582,20639,-2423,1471,7040,1158,2871
651,3898,1118,25117,-1805,-1244,-369,-2570,15513
651,2457,1095,24347,-2499,-1274,3723,-1380,8431
651,1611,-1883,25173,-7732,295,13807,2435,-954
699,11903,1654,27065,-3341,-855,-2017,358,-7004
699,8659,1111,25635,-3043,-1019,830,3345,-3833
699,-3929,-2748,27334,-7265,185,14126,4542,-5366
699,-4773,-2567,26302,-6474,540,16052,3298,-5081
699,-2777,-1753,26099,-4093,807,11001,573,-2358
699,-6514,-4772,29643,-4906,2455,7799,-3094,4204
699,-2423,-3765,28061,-4915,2125,8360,282,-272
699,-257,-3506,32108,-6184,1006,13541,3583,15236
699,4103,-2990,30404,-5923,698,13926,3571,1320
699,-6246,225,35829,-1238,-2296,2629,-1906,1679
746,-339,4902,38252,2513,-3783,-21879,-4058,-5377
746,4,148,34008,-2702,-2022,-3360,-2165,-5269
746,9250,-2681,34756,-3942,693,12125,-261,-11631
746,8231,-2155,33052,-2443,856,9914,-3956,-6038
746,2833,-3338,38680,-6354,1275,14229,1869,-1062
746,4927,-2602,36509,-6390,672,9759,2134,-2848
746,5300,-4073,39255,-9772,-165,14589,-2402,17023
746,5826,-3809,37583,-7681,289,11591,-2262,16554
746,3871,-3252,42932,-1074,619,5798,6644,18825
746,752,-3514,41323,-1948,945,13525,7441,9160
795,-3190,239,42450,-5786,-1199,-2144,-5973,-6621
795,9414,2052,48328,4151,-2531,-15564,5221,142
795,7260,1893,45266,2745,-3241,-7843,6172,-3327
795,5279,1390,42366,1227,-2985,-341,3640,-5229
795,-1859,-6619,44334,-8421,2157,21776,-7110,14392
795,1070,-5734,42091,-9258,1566,21860,-8067,10032
795,-2701,-5903,46270,-5499,1210,14940,5021,-6193
795,37,-4932,43326,-6381,275,17260,3116,-10992
795,-3032,-5594,47844,-5817,1183,21679,6995,-1577
795,-7477,-6117,46274,-3050,2153,11848,8093,2730
844,46,-1406,46725,-8924,-1706,-1457,-5820,-4773
844,-5632,-6699,49474,-3668,1918,10008,7625,-3466
844,-4962,-6076,46794,-4165,1245,9096,1833,-1754
844,-3463,-4432,44439,-4468,394,7306,-33,-227
844,385,2164,51355,3135,-3575,-21873,-10446,-1435
844,4124,314,47472,720,-3089,-12328,-7280,-2542
844,2007,-5053,46763,-6261,61,14128,2918,-1145
844,2372,-4453,44377,-6542,-490,13175,467,-323
844,-5218,-5909,48202,-8430,601,15281,1083,3259
844,-4917,-5648,45708,-6527,489,16376,1271,4746
892,-4382,-307,47357,4427,-1320,-2179,5335,7161
892,8191,-5531,45637,-10146,-288,22361,2070,-11364
892,11220,-4146,42971,-8181,-408,17611,3477,-8258
892,9121,-3056,40981,-6376,-548,12612,3927,-5997
892,1608,-4722,44294,-7899,-415,20573,-1464,443
892,-1349,-4032,41985,-6101,-462,16309,-1072,-4593
892,3247,-1772,46972,-49,-1165,3820,-15214,11685
892,5118,-3490,42901,-3809,-925,13378,-11278,8677
892,10391,-4626,44864,-5012,160,23700,21374,2361
892,5355,-4959,43052,-5141,744,18163,15329,-3075
941,5084,-2420,42039,-2353,-2026,-5979,5236,-7095
941,-478,-2585,46581,-1572,-708,-4231,-596,1697
941,-1217,-983,44687,-925,-1977,-8654,-1763,-225
941,-90,-799,41671,-1958,-2431,-5358,-2609,-4668
941,1288,-7307,40847,-6756,485,24250,7994,6180
941,986,-6613,38498,-6696,209,27888,7901,4069
941,4877,-5439,40294,-3952,583,16855,-1140,2286
941,3931,-4686,37731,-3392,-18,16877,-3510,2746
941,2907,-643,43605,3162,-3080,-10548,2318,6034
941,3652,1608,42159,4328,-3990,-14144,667,8952
990,-13533,-9797,37700,-5187,1320,14165,726,15154
990,-11523,-8206,36445,-2334,1083,5641,1154,6527
990,4441,-5339,35948,-5740,-446,8619,-2661,-5357
990,2968,-5268,34449,-5861,-44,10582,847,-698
990,4526,-934,38380,-276,-1483,-8628,5464,1823
990,2461,-1829,36187,-927,-1199,-7150,5744,5604
990,1289,-7298,34788,-6496,434,22412,13645,-10922
990,-683,-7075,33411,-5856,594,23416,17152,-7450
990,1368,-5913,33121,-5912,-857,16768,-9061,-6653
990,1365,-5672,31303,-5360,-956,16030,-8865,-7163
1039,-481,-624,33558,2870,-2672,-10993,2838,-9080
1039,2935,-420,31636,2274,-3049,-8115,3047,-6682
1039,1902,-9926,28139,-4400,-87,26020,6276,-12679
1039,4230,-8362,27515,-2434,52,18010,6448,-9045
1039,6876,-4464,27580,-9304,-2655,18740,-9,-12549
1039,3616,-4856,26822,-7529,-1507,8045,-7598,-5142
1039,-6686,-2956,31553,-6044,-2329,15121,2565,12638
1039,-2888,-2227,28694,-6461,-3214,18367,5847,14273
1039,-641,-1214,27049,-2867,-3637,5211,1566,10768
1039,871,-7254,26484,-2248,749,8795,1782,8643
1088,-6027,-4506,25809,-2384,-1623,-5137,2434,4165
1088,-6374,-7573,23701,-4219,183,4963,2900,901
1088,-197,-6403,24065,-1618,348,3164,-4790,1062
1088,2625,-5959,22854,-1186,546,3641,-2805,-1545
1088,2496,-6862,21952,-4641,-495,14272,2426,16551
1088,1309,-5938,21135,-4012,-343,12501,2748,15050
1088,1582,-5299,21773,-1695,-864,87,3400,3501
1088,1953,-4917,20740,-1290,-591,-2249,3228,3023
1088,4004,-3822,20085,511,-457,-7881,1953,1697
1088,5494,-98,20766,1553,-3311,2044,-150,-11080
1135,-980,-545,20623,1915,-3583,-14749,-7275,2107
1135,-1041,-5761,18892,-3492,-540,9614,-5469,8556
1135,-2073,-5335,17806,-3730,-592,12924,-890,9659
1135,-4894,-4472,16860,-2715,-651,10556,1429,10929
1135,2853,-5107,17339,-5718,-767,9365,-7069,2640
1135,4253,-4433,16210,-5450,-1280,8372,-4455,7579
1135,-12266,-6741,16278,-5264,-1910,5469,-6534,-2235
1135,-9559,-7909,14399,-5789,-369,12250,-5992,862
1135,2624,-3702,14890,-2738,-1381,3167,3653,-4061
1135,2508,-3011,13782,-2672,-1489,-3566,1425,-10536
1184,1411,-1245,15059,1004,-2295,-2325,-3955,-3715
1184,-1775,-857,15132,1464,-3788,13569,4629,2845
1184,4894,-603,13883,-913,-3628,9742,1578,-6007
1184,7758,2307,14409,2187,-4318,-10754,-1588,-9796
1184,6564,-3642,11089,-2587,-1040,8939,-15930,-4864
1184,2872,-3900,11075,-2195,-630,7656,-19608,3688
1184,-3037,-4181,11401,-2551,-696,-3008,4721,-11115
1184,-1777,-3547,11099,-1786,-498,2294,5517,-2212
1184,2827,-3682,9479,-1736,-1158,8398,-909,-2252
1184,8084,-2272,8379,-1703,-1826,9839,2751,-4453
1233,-6002,-4188,10415,1860,-1185,-5677,-10718,-7597
1233,813,-3189,9531,-1968,-1244,6787,1334,3018
1233,141,-3131,9023,-2530,-1288,7063,445,-3621
1233,-3346,-2836,9081,-2269,-1298,5029,-2753,-8000
1233,-419,-507,9841,578,-3111,-5696,4169,4541
1233,-1371,1519,10753,4579,-2985,-20619,2629,3534
1233,5926,-3492,7124,-3731,-1364,3089,-6821,-5341
1233,5227,-3206,7217,-2779,-1112,2969,-3480,-19129
1233,1663,-2484,7084,-1403,-1237,1959,-2067,-791
1233,732,-2393,6870,-1115,-1236,3330,-3306,1543
1281,3565,-1571,7850,1559,-1139,-8775,5273,-6804
1281,8880,-2522,4891,-2462,-2192,7319,10186,-8548
1281,4264,-2643,5164,-1919,-1697,6705,6075,-2839
1281,1780,-2108,5660,-890,-1485,3762,5480,2989
1281,-1646,-2350,5430,-3219,-1495,-6719,-551,-898
1281,963,-1845,5097,-3725,-1910,-4523,592,-4909
1281,-7618,-1016,8113,1551,-2864,-6586,-569,-7454
1281,-10985,-1082,7384,1294,-2843,-5118,620,-4616
1281,6116,-2399,4371,-3333,-1547,8174,-687,-5529
1281,1212,-2618,4135,-2548,-1495,4449,-891,-4569
1330,2438,-899,4702,-164,-2445,578,6173,7575
1330,-3906,-3532,5275,-2926,-677,4278,3312,4815
1330,-3198,-1630,5452,-94,-1669,-10223,1010,-337
1330,-2794,2522,7086,3932,-3573,-23084,-930,-1632
1330,6189,-2934,2253,-3091,-1241,7689,12055,-2336
1330,-3460,-3852,3073,-2377,-560,10575,7157,5940
1330,5387,-2505,3259,-1027,-707,6123,9691,3530
1330,3980,-2451,3281,-656,-588,5380,10425,4022
1330,4942,786,4413,692,-3377,-5361,4210,-23116
1330,-5534,-550,5016,1336,-2638,-8478,1528,-13542
1379,-3710,-595,4547,921,-1782,-1861,309,2522
1379,-1509,-3887,2845,-2024,-140,8154,5273,76
1379,-98,-3428,2228,-4102,-432,4719,1824,-40
1379,319,-3522,2513,-1733,-118,-4005,7088,4165
1379,12348,1329,2783,1002,-2727,-12829,-962,-13569
1379,6132,3461,4192,3695,-3852,-11582,-1530,-21771
1379,-3427,-4284,1369,-2555,-340,9536,-2591,6163
1379,-5528,-4407,1620,-2341,-340,8072,-3190,9044
1379,-5754,-3786,2131,-1273,-397,4504,-3275,9065
1379,-3284,-3306,1397,-1258,-243,5180,59,6651
1438,-930,3042,3266,2144,-4985,-14150,-430,345
1438,-1622,1173,2853,1031,-3728,-10435,350,-1003
1438,2469,-6220,-629,-7539,-510,16770,-1842,6764
1438,3235,-4722,-119,-6685,-623,11333,-5882,-4148
1438,-1678,-1826,-115,-3274,-1339,13034,-4246,-789
1438,-1431,-2217,162,-1906,-823,9192,-5534,6677
1438,-6175,-164,3266,3015,-1553,-14289,-9480,14043
1438,-6697,1655,3958,3261,-2596,-15121,-3472,-718
1438,6021,-2449,-114,-1000,38,-6461,2705,3374
1438,6102,-1842,-420,-1956,-792,-3513,3764,-1617
1487,-9264,236,4825,5978,-1698,-23582,248,7668
1487,-8695,-1216,4561,4377,-1173,-16955,-8181,11901
1487,-7784,-1157,3701,3343,-1299,-13601,-11462,13884
1487,5145,-4953,-2119,-3994,-1349,19256,2895,-338
1487,5408,-4574,-2366,-4840,-675,19668,-3087,-1034
1487,-1814,-3827,307,-2285,898,12860,13009,-2399
1487,-346,-3294,25,-3545,357,15606,16938,-2445
1487,-297,-2571,34,-4269,-423,14800,18339,-3373
1487,-3966,-969,-398,-872,-1231,-1554,-5230,6069
1487,-4200,2117,1881,2937,-2333,-16757,-7328,9963
1536,2704,1440,1117,1890,-2525,-13322,-1230,420
1536,-2609,-2597,-332,-784,-620,-3768,-1569,-685
1536,-4022,-2791,-810,-1096,-426,-1392,-1594,-3510
1536,2428,-1105,-2191,-6148,-2043,9623,722,2773
1536,729,-1027,-2021,-5013,-1849,6028,-94,3705
1536,-2097,-4463,-2344,-3148,-57,7803,14601,-4077
1536,-961,-3630,-2433,-2627,-386,6477,10102,-5185
1536,-174,-2635,-2011,-2824,-1016,6212,4829,-4138
1536,-982,-2026,-1546,-2191,-861,9944,9444,-620
1536,-279,-2089,-1359,-2472,-945,5069,-2759,-3301
1584,5967,2451,219,1171,-3852,-6202,5999,-2354
1584,2703,1840,556,760,-3304,-4798,6106,881
1584,-925,994,779,1200,-2370,-8168,3729,1464
1584,-4693,-4233,-1737,-3581,632,13956,-354,1921
1584,-3818,-3483,-1846,-3499,71,12703,818,1765
1584,3792,-1130,-3211,-513,-1205,3309,-699,-2374
1584,7047,-594,-3024,-728,-1255,8307,-5707,-5997
1584,3496,74,-2512,-733,-1541,10132,-8635,-7299
1584,-2419,-3102,-2802,-4884,-1036,13139,-1114,-1330
1584,-6463,-2948,-2163,-4336,-984,12116,-6731,4499
1633,-5931,-42,-1942,2266,-2039,-15081,153,-1023
1633,-3067,-2564,-2414,1046,-205,-4391,3501,-641
1633,290,-36,-614,4336,-360,-11471,2052,2022
1633,3617,1698,-1486,824,-3588,-12704,-659,3412
1633,2791,1419,-1486,181,-3258,-10689,-446,4351
1633,-3611,-2828,-3558,-1035,-458,6909,-4570,-1622
1633,-1493,-2024,-3481,-2857,-1265,10845,-611,-80
1633,585,-712,-3165,-3712,-2190,10278,3385,-2582
1633,-656,-2066,-3408,-3393,-1310,-563,-7113,-1410
1633,2336,-1011,-3460,-3833,-1704,5291,-6805,-1395
1681,6429,787,-543,4996,-1037,-14694,1442,7884
1681,5868,464,-1455,2821,-1989,-13735,5670,-687
1681,2465,-1538,-2791,-1131,-1733,-3881,7154,-9044
1681,2602,-1743,-3555,-1637,-656,7504,-6887,8628
1681,-2456,-2441,-2577,-1110,-109,8799,-1516,9461
1681,-3012,1051,-960,6865,-1653,-35208,-10494,14145
1681,-3785,1345,-956,6978,-1496,-29817,-15881,3868
1681,-893,1762,-689,7263,-1531,-18965,-11560,-7699
1681,-1770,-2754,-4248,-4349,-1164,8896,4377,5554
1681,-1982,-1869,-3643,-3090,-1053,4042,2709,5523
1729,1681,-2100,-3379,-3894,-1246,9085,16121,-9585
1729,42,1071,-779,2859,-1595,-12784,11657,-6532
1729,-2028,3180,683,6527,-2289,-25318,6019,-487
1729,-2962,-6440,-4718,-6386,-208,18967,8192,3013
1729,-1633,-5551,-4036,-5207,186,14980,4882,2262
1729,-8892,-3512,-2606,-1151,646,6053,6398,2225
1729,-12433,-3337,-2198,-115,1023,-1345,1319,6699
1729,-558,1408,-517,1947,-2426,-11204,-2365,-3883
1729,3428,1559,-728,2378,-2156,-10680,-4258,-8102
1729,5742,2539,-753,2722,-2477,-10875,-5184,-10920
1778,-246,664,-1593,-1382,-2412,-1666,4217,-2531
1778,917,-2822,-3007,-4178,-753,8374,4755,-88
1778,470,-2371,-2442,-2149,30,2524,2228,78
1778,-101,-2370,-3107,-2866,-171,8359,3163,2602
1778,38,-1991,-2582,-2493,-337,7568,3709,-88
1778,1943,-2935,-4074,-4003,-832,9938,465,2917
1778,2419,-2779,-3417,-2379,-512,939,-1048,2766
1778,-4608,-2404,-2772,-1749,-235,3334,-3424,10006
1778,-2015,-1620,-2991,-1736,-652,1755,-5589,2056
1778,1106,-1136,-2592,-1041,-814,200,-7052,-4048
1825,-2309,1950,-72,4265,-2485,-20834,-5317,-1300
1825,-2110,1318,-165,2209,-2427,-6904,-943,-489
1825,287,-2146,-3394,-3443,-515,5639,-3954,-6647
1825,-5137,-2642,-2602,-2922,55,4893,-369,-5359
1825,-7123,-2116,-1792,-2014,-203,1002,3137,-2992
1825,-2687,-2340,-2864,-7016,-1668,15181,1665,7062
1825,-5164,-2184,-2479,-4068,-1137,6578,1944,4185
1825,-1313,-5163,-4291,-4906,-376,20255,-4470,3429
1825,206,-3983,-3869,-4842,-308,19336,-4425,-1083
1825,2455,-569,-3913,-2007,-1750,2051,-3705,10713
1874,6113,2752,-617,331,-3200,-12385,-565,-3928
1874,6728,-571,-2320,-3964,-2101,3672,2939,1277
1874,8183,-152,-1978,-3429,-1822,2107,2621,9537
1874,-268,2480,-11,5154,-2447,-20168,3794,-663
1874,447,5931,2189,9625,-3561,-32982,-151,4965
1874,613,-2445,-2702,-3766,701,8783,-3173,-3801
1874,1783,-1994,-2421,-4686,35,8217,-4549,-2770
1874,-1000,-1802,-2643,-2459,-91,2968,-1187,562
1874,1550,-1036,-2918,-2751,-489,4835,1219,-3170
1874,3272,-402,-2552,-2079,-611,4594,4642,-8526
1923,7415,-62,-2868,-4671,-1952,15955,1952,-7144
1923,7982,-575,-3801,-5724,-1789,19132,6413,-16971
1923,6817,2164,-1478,-710,-2337,820,4407,-15019
1923,33,-1870,-2604,-1925,98,2409,-867,114
1923,-976,-1433,-2441,-1935,-356,1708,-1365,-3400
1923,7044,3051,1076,2590,-2227,-14992,1055,-3268
1923,6605,6081,1855,4945,-4058,-20693,1259,-4300
1923,-1849,-2553,-2858,-1995,345,3932,-8,-4113
1923,-3520,-2305,-2668,-1876,-81,3582,-182,-1132
1923,-3149,-1547,-2074,-1016,-890,609,-396,-2302
1971,-3841,1569,474,3494,-800,-10735,-3672,15355
1971,-3862,2704,925,2810,-1832,-15188,-3051,12961
1971,2264,-3549,-3292,-3608,82,10363,621,-10306
1971,2182,-3063,-3050,-3626,-25,9512,2129,-9230
1971,-121,-2309,-2502,-2668,-118,5896,2461,-4626
1971,-2737,-2860,-2195,-2302,383,7260,502,11306
1971,-1331,-1936,-2139,-2405,2,5641,3299,12260
1971,657,926,-686,1181,-1867,-9249,-789,-1285
1971,1288,830,-697,835,-1752,-8009,-670,-3126
1971,2447,-2344,-2777,-2789,-380,7035,-11681,16820
2020,-13384,-1711,-711,1248,-447,-6160,5494,-656
2020,-10344,-4790,-1825,-964,719,3296,12048,232
2020,-10032,-3368,-755,1348,495,-4868,8016,3263
2020,-4854,2198,-391,850,-2071,-22249,231,7400
2020,-1705,2742,104,409,-2898,-16715,-254,11634
2020,1578,-3341,-3662,-3882,-319,11396,-1318,-9814
2020,1310,-2944,-3347,-3463,-439,9397,-1039,-8569
2020,2520,-1643,-3274,-3802,-517,2016,591,2910
2020,1159,-1479,-3028,-2489,-273,-2613,182,4073
2020,2280,-616,-2718,-1322,-514,-3852,394,4673
2068,6472,971,-1752,502,-1701,-1635,1593,-9579
2068,5386,1035,-1043,1223,-1715,-6342,-3291,-6188
2068,-2177,-2128,-2690,-3177,376,1212,1761,5899
2068,-761,-1654,-3085,-4019,-431,2390,992,6881
2068,212,-536,-2834,-3513,-1323,-245,-314,5711
2068,-2102,-1501,-2318,-6412,295,6910,1861,-3318
2068,-997,-4,-1074,-4935,-256,1991,2474,-2839
2068,-2169,-2232,-3849,-3703,-909,10547,-1523,7365
2068,213,-1549,-3452,-3526,-1112,8775,-1227,-206
2068,-2299,-2208,-2019,-517,695,5551,-220,-2926
2117,8488,4144,181,3576,-2116,-13694,5337,1154
2117,12825,4266,-150,3121,-2895,-9658,3549,-8752
2117,11710,3743,-813,1946,-3369,-5403,457,-14376
2117,3459,-3008,-2482,-2056,-800,8181,-167,-3270
2117,4048,-4537,-4411,-5738,160,17474,1074,-3654
2117,-838,-1639,-3326,-1847,-172,5102,-1582,11837
2117,-22,-1295,-2995,-1985,31,11175,3254,1037
2117,-7505,-3192,-1400,-944,1280,7516,-490,1963
2117,-3815,-127,-240,1985,-52,-4342,1546,-1611
2117,2226,-1664,-3272,-2540,-839,4108,3571,-5679
2166,883,1113,-2674,-39,-2671,-868,-9388,7387
2166,1414,-606,-4338,-2453,-2018,13368,-7168,-7118
2166,-2626,739,-2384,1595,-1563,-1428,-7043,-13518
2166,-5380,-2432,-2449,-971,132,2895,951,-9280
2166,-7358,-2470,-1949,-667,226,1687,409,-3070
2166,-2236,-4889,-4006,-3534,-462,5997,1536,-620
2166,-1063,-3214,-3707,-3804,-942,5757,4513,3062
2166,-2258,-1590,-2239,-565,607,7339,2980,4275
2166,-2459,-1692,-1847,560,876,6942,-863,-1536
2166,-2991,-832,-1325,2326,584,1327,-1897,-5908
2214,5815,2864,35,2608,-2393,-16923,-1641,8440
2214,8888,2334,-811,1133,-2299,-10793,-369,4117
2214,-777,-2033,-2738,-590,39,4817,-9445,-4375
2214,-1188,-1580,-2668,-1578,-122,5649,-8150,-2595
2214,346,-713,-2449,-2283,-548,3542,-7792,-3058
2214,110,-707,-3071,-5187,-952,9730,-5562,1111
2214,349,-617,-2670,-4753,-727,8427,-3795,801
2214,-485,-3197,-3319,-4758,-390,9073,4562,386
2214,-114,-2425,-3192,-3957,-543,7477,3810,5453
2214,-8984,-2302,-1393,-818,246,3694,3885,10803
2263,7099,2724,-694,2579,-2044,-13318,348,-21981
2263,4009,-716,-2462,-1222,-1162,569,2530,-12991
2263,137,3415,-156,4357,-2300,-19907,3738,2976
2263,-7419,765,-157,3356,-1618,-9819,-8602,7473
2263,-5236,1367,-148,3440,-1734,-10660,-4799,4804
2263,2972,-1835,-2852,-291,368,3936,3160,-3473
2263,5037,-1207,-3080,-903,-427,4923,3566,-965
2263,-3456,-1719,-2595,-1424,-506,-2000,238,-1461
2263,-3727,-1795,-2241,-1318,-175,920,2514,654
2263,-3774,-1679,-1626,-972,137,2842,3090,5973
2312,398,-1481,-1949,-177,-560,-657,1697,-321
2312,364,-2442,-2605,-1754,-72,5291,3291,-172
2312,-603,1115,-869,1666,-1385,-7947,3325,-2781
2312,-1240,-1503,-1881,-920,486,1562,1216,-3010
2312,150,-1376,-1615,-465,382,904,1668,-2887
2312,5984,2906,-1303,3381,-2812,-9729,3311,-3818
2312,2528,3139,-412,5112,-2630,-14388,428,-9597
2312,1960,-1586,-3192,-3725,-794,4976,2488,-1663
2312,967,-1314,-3166,-3277,-764,4096,1882,1408
2312,-587,-591,-2770,-2197,-1215,883,1341,2853
2361,-1842,3483,1010,6014,-2216,-27029,-238,-4016
2361,-2694,2385,336,3945,-2221,-18728,-687,-1559
2361,-2060,1868,-185,2222,-2389,-12776,-1010,653
2361,2924,-2081,-3513,-4584,172,9789,1513,2675
2361,-1023,-2414,-2820,-3755,419,7669,425,7387
2361,-2492,-1851,-2888,-2192,-163,6764,1603,2766
2361,-910,-1283,-2415,-2672,-386,4257,2379,1983
2361,-279,1321,-1241,1385,-2175,-8520,543,4768
2361,-256,2774,-371,2842,-2777,-12971,380,-2849
2361,-748,-1865,-3169,-3084,-1,7221,1665,-978
2410,1815,-1170,-2564,-2217,-636,4710,1291,-2364
2410,941,-1855,-2478,-2213,219,6422,1098,-823
2410,-1565,-819,-2780,-2460,-205,2753,-1766,1979
2410,-1818,1798,-1234,618,-1178,-7747,-955,631
2410,-579,3873,341,3860,-1879,-17297,-1504,1727
2410,9845,-1895,-4307,-4136,-90,16190,4644,-14274
2410,6487,-1733,-3926,-3702,-125,14949,3441,-7806
2410,-2867,-2640,-2595,-440,1151,4092,1054,1008
2410,-1440,-2220,-2259,1113,1241,3711,1634,1394
2410,-2455,814,-1533,1226,-2005,-7464,-878,3105
2460,2144,-1667,-3368,-1803,-58,5170,1167,-1304
2460,1823,-1873,-3613,-2138,93,6065,1326,-3299
2460,-745,-1149,-2965,-813,-251,1387,256,1047
2460,-113,-1576,-3793,-1858,-364,5759,886,2775
2460,264,-1036,-3449,-1220,-530,2817,156,3248
2460,1104,2760,-1767,1629,-2623,-12938,-1197,3530
2460,316,2360,-1781,1902,-2484,-11661,-1241,3798
2460,-669,-2331,-4313,-2869,324,6491,-429,-669
2460,1230,-1957,-3817,-1674,281,4564,-1873,-322
2460,617,-1153,-3277,-736,97,1659,-2505,-652
2509,-2535,3594,-2010,3037,-2484,-16477,-44,2207
2509,-2962,3771,-1635,3017,-2958,-16814,-393,3034
2509,-2539,2726,-1927,1702,-2627,-11883,-141,2866
2509,-369,-3509,-5227,-2214,995,10479,1200,4705
2509,1636,-2917,-4796,-2093,787,8752,998,4459
2509,2241,-1026,-5562,-3252,-352,7080,1816,8181
2509,-1186,-972,-5019,-2013,-236,4955,957,6259
2509,-5773,2322,-3297,1893,-2352,-11628,-1013,3463
2509,-2934,2027,-3168,1473,-2187,-10064,-834,2194
2509,-1474,2458,-2361,2242,-1945,-11686,-665,1124
2558,3029,1577,-4798,-382,-1564,-4437,644,-1343
2558,2112,-1393,-6079,-3360,-471,7646,1577,-497
2558,925,-190,-4958,-1496,-552,1941,881,1031
2558,-3745,-1383,-6143,-2607,398,36,-3048,5699
2558,-1536,-665,-5949,-3680,-92,11121,-710,1098
2558,1970,-2194,-6652,-1539,546,8607,1518,-3345
2558,3819,-1759,-6099,-943,444,6976,1135,-2953
2558,-3266,-1471,-5406,-1065,1070,2602,439,2025
2558,-3422,-1250,-5213,-1124,1066,2160,638,2093
2558,-2100,-526,-4518,-545,873,-276,660,1551
2605,-1258,3349,-3391,4043,-2394,-15194,-868,-750
2605,337,2642,-3473,3404,-2121,-12105,-452,-863
2605,1305,-1219,-6209,-1588,837,3814,616,-1390
2605,284,-1001,-5890,-1462,718,3611,750,-2004
2605,1157,-425,-5500,-996,416,1979,655,-2040
2605,1660,189,-6523,-1747,23,3188,1374,-1047
2605,-33,217,-6165,-1681,3,2829,1333,-1039
2605,-916,-5034,-6803,-4135,107,13649,1432,-397
2605,69,-3899,-5795,-2686,283,8939,1231,-930
2605,-2067,-267,-5825,-952,268,2205,804,-610
2653,1158,3733,-3402,4654,-1412,-15294,-735,-1113
2653,371,1856,-4047,2686,-961,-6962,-301,-737
2653,6461,3844,-4499,1928,-2431,-10778,110,-2768
2653,4851,3455,-4461,1566,-1965,-9339,416,-3577
2653,5264,3413,-3857,1865,-1901,-10786,254,-2848
2653,-643,-847,-6772,-1715,708,3875,879,2183
2653,-1008,-660,-6103,-1096,654,1950,780,2486
2653,-1284,-169,-6469,-2532,192,4571,2104,-747
2653,-133,116,-6106,-3147,41,5104,2245,-3841
2653,2158,-1094,-6514,-1931,862,4060,-902,-1189
2701,-4352,3778,-5327,3496,-3084,-12549,-556,310
2701,-5038,2100,-5313,1379,-2288,-6305,69,49
2701,-106,10,-6355,-1893,576,11919,2324,-1878
2701,855,202,-5887,-1559,370,6430,1512,-421
2701,1104,3660,-4509,2358,-1860,-13229,-879,-75
2701,1860,3502,-4455,2065,-1798,-11808,-488,-547
2701,1319,3579,-4189,2174,-1889,-11649,-320,-699
2701,175,-1031,-6748,-2439,778,5044,794,312
2701,-1391,-271,-6118,-1598,468,2107,609,306
2701,297,362,-7630,-2360,177,2505,671,-434
2750,68,6206,-4768,3360,-2476,-19650,-1295,573
2750,1180,4841,-4995,2065,-2115,-13838,-992,606
2750,-1121,-2277,-7776,-3095,1799,8430,882,620
2750,199,-2026,-7069,-2798,1494,6453,749,-51
2750,412,-1394,-5857,-1945,1292,2852,489,-771
2750,-3106,-240,-8095,-2412,162,1888,126,2370
2750,-1931,-23,-7745,-1801,-10,648,419,-1423
2750,1844,4097,-6271,1614,-2354,-10580,-328,-64
2750,-2249,3643,-6296,2395,-2028,-10991,-454,557
2750,-1611,67,-8377,-2356,342,1956,828,-2765
2799,-159,4394,-6824,2499,-1748,-15957,-1259,611
2799,-720,1020,-8084,-1512,-954,-2094,-360,939
2799,3200,1361,-11330,-3192,-531,2993,1959,-3394
2799,1315,1695,-11368,-2207,-3309,389,1039,-258
2799,532,2830,-9455,173,-4051,-7464,-392,3719
2799,-1489,-780,-9710,-2353,505,4749,924,510
2799,-1170,-295,-8907,-1639,385,2615,717,402
2799,649,2085,-10672,-2159,766,981,530,64
2799,-417,1496,-9509,-1875,1148,862,595,-3
2799,681,3300,-7353,2436,-1149,-13674,-695,637
2847,678,-621,-10166,-2797,-986,4666,538,156
2847,945,-1403,-10193,-3307,-33,7774,959,-41
2847,-118,1592,-10787,-2048,95,674,827,-274
2847,898,1257,-10097,-1750,258,312,630,-160
2847,-625,1314,-8883,-884,452,-1993,196,97
2847,950,2028,-10988,-2916,-1197,-182,707,2256
2847,-2624,2142,-9907,-1279,-819,-3309,84,2794
2847,1169,-1638,-11422,-1716,1475,3840,423,973
2847,-633,-1206,-10651,-1161,1079,2082,237,976
2847,511,-199,-11006,-310,868,-5130,116,608
2896,-752,3658,-10215,1217,-521,-11359,-485,72
2896,96,1074,-11277,-891,572,762,253,553
2896,-796,5723,-10401,3560,-2986,-16450,-1143,1530
2896,-1026,6526,-9253,5060,-3275,-21002,-1389,2531
2896,-2201,6502,-8595,4974,-3419,-21102,-1349,1781
2896,1055,-17,-12970,-2007,1144,3400,881,-3215
2896,-1174,-170,-11986,-1459,1426,2301,421,-1940
2896,-2005,852,-14308,-1734,633,2789,1295,233
2896,-1693,1240,-13246,-1238,472,231,944,614
2896,1527,1143,-15300,-1177,979,1690,1182,-629
2945,1404,1727,-15558,-1065,246,474,718,-537
2945,1565,1417,-14718,-968,479,732,843,-505
2945,1339,1499,-14582,-651,1654,177,889,-730
2945,-72,1531,-13433,-828,1442,13,858,-693
2945,885,1872,-12522,-664,1054,-1157,861,-554
2945,-554,7195,-12814,8016,-2612,-25615,-1286,1018
2945,950,4875,-13797,4565,-2070,-14878,-548,583
2945,193,724,-18356,-1262,351,2586,1394,-882
2945,1174,934,-16818,-749,795,946,1066,-733
2945,-778,882,-19396,-513,1012,1371,894,1188
2993,787,6309,-15970,4460,-1436,-18434,-536,-167
2993,2033,5296,-15720,2917,-1168,-13410,-293,682
2993,631,654,-20071,-1387,1313,5850,1436,-290
2993,-964,919,-19009,-814,1003,4226,1195,-370
2993,-616,1684,-17762,545,738,803,831,-419
2993,-792,1744,-19258,-96,2620,2817,1069,-841
2993,-620,2123,-18006,148,1921,4579,1148,-744
2993,642,-423,-20555,-1160,1943,7483,1495,-784
2993,-1033,61,-19147,-478,2494,6039,1590,-716
2993,1657,2031,-20902,390,982,144,913,-711
3042,-440,2021,-19575,1508,-758,-4199,374,-553
3042,-519,682,-19416,-131,-149,2013,908,-728
3042,-209,4730,-19245,3594,-860,-13593,-25,96
3042,1602,4712,-18379,3584,-1031,-13127,-76,-79
3042,1400,5163,-17450,4074,-1360,-14596,-278,-126
3042,1285,431,-21741,-942,2009,4327,1434,-562
3042,-232,798,-20510,-1025,1746,3052,1140,-407
3042,-117,1109,-22758,-296,1657,1239,943,-271
3042,430,622,-21114,105,2091,469,759,64
3042,-330,157,-24294,-952,96,5238,1407,-385
3091,943,4594,-21166,2960,661,-11148,25,117
3091,562,1227,-21776,-306,1874,1993,911,-212
3091,842,741,-22709,768,1501,-284,788,-181
3091,-468,782,-21763,586,1207,-298,743,-145
3091,-230,1157,-20933,925,750,-1548,707,-228
3091,-759,4853,-21367,4701,-429,-14530,-379,321
3091,-537,4587,-20284,4526,-363,-13900,-438,373
3091,1370,905,-25179,316,1850,1771,830,-173
3091,1504,1246,-24606,376,2255,602,778,-202
3091,-677,2040,-25693,383,1895,229,1020,-373
3140,197,5699,-19761,5850,-1529,-20638,-991,756
3140,-921,4120,-19181,4197,-585,-14492,-590,479
3140,241,-1211,-26271,-798,3846,8593,1571,-485
3140,-1305,-652,-24247,-180,3951,6719,1233,-407
3140,-832,488,-21873,1038,4035,2675,776,-396
3140,-360,2975,-24733,718,1488,484,846,-449
3140,-389,3232,-24183,926,1438,-149,794,-448
3140,-519,4565,-21545,5301,3209,-14070,-500,316
3140,-266,4142,-20401,5266,2728,-13566,-638,613
3140,1594,929,-26067,633,3189,1632,1174,-1049
3188,1200,4419,-23158,4908,-482,-15711,-238,37
3188,945,2119,-23906,1705,-309,-4878,400,-316
3188,433,1074,-21435,1169,3434,1033,1068,-528
3188,-1132,1296,-20188,1237,3125,282,883,-419
3188,-943,2228,-19017,1707,2313,-2850,580,-236
3188,509,-1033,-26075,-945,385,7732,1369,-461
3188,-739,-698,-24410,-424,938,5507,1191,-374
3188,-449,617,-22915,861,2172,485,959,-566
3188,36,1154,-21855,1254,1716,-928,893,-527
3188,-306,3857,-21299,5794,2009,-15052,-540,343
3236,-709,2900,-20041,5187,2666,-12296,-383,390
3236,899,-569,-20645,1334,3326,1864,557,-17
3236,554,269,-17641,1121,4098,980,1142,-744
3236,-782,516,-17829,906,3682,414,1022,-884
3236,-490,1532,-18240,1731,2318,-2509,762,-885
3236,1153,1905,-17503,2094,5012,-910,615,-2
3236,-70,2126,-17233,2167,3412,-1960,425,-75
3236,1156,-1075,-24867,-134,693,7009,1260,-395
3236,1061,193,-23618,892,596,3351,968,-345
3236,861,203,-20897,2081,3831,-1233,790,-399
3285,-349,5153,-19715,5227,-1584,-14760,-162,74
3285,963,4780,-19715,4500,-3214,-13080,-273,-37
3285,354,4937,-14525,9469,-837,-26505,-1449,825
3285,-892,5307,-13020,9561,-1022,-27555,-1643,905
3285,-517,-835,-19477,240,3865,4577,1441,-651
3285,-408,-435,-17748,529,3571,3368,1224,-568
3285,-483,-2377,-15231,211,-867,1952,1564,-743
3285,883,-2195,-13882,354,-305,1414,1418,-621
3285,510,-1892,-13433,1156,-241,-841,954,-353
3285,-823,-267,-24100,447,3423,3168,1182,-665
3333,146,3495,-16349,3762,-324,-11118,71,-23
3333,-1253,3395,-16699,3755,-933,-11639,-244,40
3333,1037,1483,-16545,1217,1572,1531,754,-434
3333,-213,1873,-19800,1308,65,1022,818,-521
3333,116,3805,-17080,5648,-318,-15721,-607,519
3333,-663,7434,-14109,9389,-2068,-30526,-1717,943
3333,-1817,-1296,-18759,830,3117,4651,977,-134
3333,-1324,-895,-17541,915,3468,3862,924,-188
3333,346,159,-16165,1548,3744,763,747,-114
3333,905,-534,-17876,669,1781,1566,829,-413
3381,646,1967,-15451,4183,1799,-11113,-278,98
3381,-440,-1886,-19227,-53,5265,7306,1297,-725
3381,577,-1662,-18115,255,4406,6062,1135,-744
3381,-750,-1082,-17285,727,1017,3330,748,-580
3381,-884,751,-14785,1369,2380,489,567,-576
3381,-627,1014,-17700,1208,1347,66,571,-650
3381,-922,2232,-14667,4665,291,-12905,-617,124
3381,820,2385,-13295,4337,300,-11822,-531,36
3381,934,-107,-18307,823,1809,1237,612,-852
3381,711,-187,-17580,911,1753,1255,615,-728
3430,-1048,208,-15779,690,-551,392,500,-838
3430,-1002,-394,-15657,477,-121,1752,591,-718
3430,-996,36,-15028,2042,2386,-1471,394,-520
3430,648,3305,-14089,5178,136,-13681,-505,-141
3430,-1153,-1237,-12046,152,2479,4229,786,-564
3430,402,-1029,-11056,543,435,2103,615,-535
3430,-62,100,-17488,852,1863,261,735,-731
3430,-1356,55,-17573,894,668,-1,614,-672
3430,-1014,870,-16662,1503,-966,-3082,421,-636
3430,446,4009,-20181,3910,-3444,-11576,-396,-142
3479,-641,3344,-11842,3842,-6065,-13755,-368,-171
3479,259,1132,-12144,1424,-3273,-5403,78,-364
3479,-1264,-2153,-8661,287,2014,2268,1000,-890
3479,38,-1766,-7962,967,1657,-143,632,-610
3479,54,-1784,-2650,2973,9365,-3375,267,-176
3479,-1019,2401,-7656,6168,1249,-17105,-736,169
3479,-765,-2032,-11221,-117,-31,4403,1207,-834
3479,-311,-1579,-10975,321,-703,2558,991,-707
3479,1098,-787,-10065,1092,-1027,-627,679,-569
3479,-675,-1022,-14833,492,44,245,723,-613
3528,-319,4672,-7821,6373,-1660,-22305,-1179,63
3528,981,3557,-7547,4961,-1369,-17394,-918,43
3528,-781,-5625,-5228,-1917,3380,14596,1274,-674
3528,-327,-4790,-5360,-1321,3992,12164,1272,-614
3528,1102,-1135,-17481,348,-357,2096,885,-1186
3528,-391,-636,-17891,431,-279,841,891,-1083
3528,-24,-14,-16762,2252,585,-5473,168,-730
3528,1422,3883,-15090,5949,-1545,-19833,-925,-226
3528,1408,4002,-11912,5931,-2042,-20218,-1157,-104
3528,505,-1422,-10759,-178,-10191,2100,453,-950
3577,1473,389,-8400,1510,3790,-1470,575,-1204
3577,237,-1042,-7327,-71,3940,3356,852,-1187
3577,-520,-1928,-10914,754,-1126,1019,568,-952
3577,1169,-1083,-10577,500,-444,612,565,-1049
3577,547,-4441,-7626,-664,7745,9478,866,-935
3577,-351,-3040,-9142,234,7515,5501,697,-761
3577,216,-561,-13285,727,-1032,711,1196,-3389
3577,74,-150,-14194,1255,-1020,-536,877,-3364
3577,-205,803,-12546,2239,86,-4147,271,-1974
3577,-948,4117,-9292,6669,-1068,-22135,-1297,272
3624,-562,2943,-8017,5910,-398,-19131,-1342,316
3624,-779,-1255,-15387,618,-85,1879,492,-443
3624,-776,-1012,-13985,703,-487,1454,406,-452
3624,-227,-258,-11679,1368,224,-1325,228,-395
3624,211,-2749,-6462,1014,3434,-426,212,-447
3624,-798,-2739,-4714,1153,3147,-1102,169,-351
3624,-909,-2194,-15245,-750,543,7598,816,-467
3624,-792,-1433,-13339,244,277,3533,602,-446
3624,1103,-531,-12989,994,733,-343,323,-453
3624,1222,-346,-12259,650,1545,-214,433,-497
3673,962,2014,-7768,2249,551,-5138,68,-501
3673,-459,246,-7570,720,1568,955,622,-569
3673,934,3157,-9390,4713,-2578,-14857,-1075,381
3673,827,3032,-9872,4452,-3114,-14150,-1126,432
3673,1092,37,-3003,985,5273,1979,366,-478
3673,782,658,-3550,1517,4109,131,125,-295
3673,-1130,-728,-6938,1355,3717,-96,360,-237
3673,-989,-609,-5824,1263,3164,-236,400,-279
3673,-760,471,-4212,1967,3660,-3291,109,-174
3673,-1182,-774,-12280,-338,-5415,2718,420,10
3722,1351,2457,-3971,3028,-1399,-8610,-651,581
3722,1055,1372,-16137,1765,-2651,-3481,-51,1009
3722,-1403,-776,-9122,472,133,603,378,-107
3722,-131,-1213,-7790,994,471,-1113,234,37
3722,585,3664,-12047,4696,-2204,-13546,-846,154
3722,400,3220,-10628,4429,-1627,-12228,-702,151
3722,-501,-450,-12410,1180,7235,3574,1018,-763
3722,-915,-458,-11982,1094,5189,2980,941,-885
3722,-988,-725,-8594,1064,3425,1277,608,-796
3722,-1291,1373,-18864,661,-10134,659,488,10
3771,373,5619,-4084,6604,-1354,-21512,-1248,826
3771,-1186,4836,-2991,5672,-4352,-18923,-1241,744
3771,960,-1887,-6392,-759,3500,9866,1208,-609
3771,-629,-1576,-5944,-313,3782,8037,1029,-418
3771,962,-449,-8836,525,1895,2241,611,-592
3771,866,-200,-7565,997,1844,720,392,-331
3771,905,3505,-2597,4314,-738,-12431,-985,28
3771,-562,3102,-3107,3922,-764,-10905,-825,-62
3771,367,3320,-3260,4582,-1360,-13183,-1049,118
3771,-1067,-268,-8748,295,36,3083,478,-440
3820,-1419,-190,-9013,2302,-1047,-5141,-389,129
3820,-1146,-2273,-7716,40,1641,3555,310,-82
3820,-554,390,-10670,151,834,2061,829,-687
3820,1064,1781,-9167,1972,543,-3761,197,-343
3820,-112,-2057,-9954,759,3012,5060,581,-167
3820,-346,-2023,-8637,948,2864,3808,416,-118
3820,111,167,-6280,771,3033,1337,289,-515
3820,-1098,-83,-6418,859,2325,1005,228,-384
3820,34,101,-7210,1195,1431,-696,121,-318
3820,168,2447,3887,5563,7033,-11784,-1154,462
3868,1693,7140,-21076,2475,-11704,-8600,-146,-361
3868,1191,5417,-17240,1717,-6319,-6471,-279,-341
3868,-2073,-1585,-4948,706,1131,1768,429,-244
3868,-1515,-1041,-4458,1091,1459,304,242,-84
3868,-513,-1243,-5176,1021,1876,1508,492,-230
3868,-2026,-906,-4922,1113,68,735,284,-169
3868,15,-1501,-4417,440,1728,4886,573,251
3868,61,-486,-8582,408,903,3926,589,179
3868,-44,974,-11806,1099,73,365,426,47
3868,-613,-1413,4455,1538,6923,74,297,18
3916,-2155,2141,2550,5766,4979,-14645,-883,644
3916,-531,4717,379,7319,1499,-22385,-1589,987
3916,-1583,2355,-5761,4238,-4074,-11305,-867,742
3916,-1305,4908,-4050,6892,-4886,-20839,-1516,966
3916,-214,-951,-8017,-266,-1317,5141,796,-214
3916,-1399,-912,-4408,421,1924,2914,623,-118
3916,526,-126,-4215,-369,1686,4029,625,-138
3916,-1268,-582,-3365,-234,1469,3438,426,-30
3916,-1356,-40,-2928,762,884,-286,37,155
3916,-962,1773,-13265,566,5770,3872,423,624
3965,-223,3954,-5688,3593,-1756,-10228,-457,-185
3965,1558,859,-6310,171,-439,2927,547,-561
3965,428,36,-4801,17,3171,2864,352,14
3965,-602,609,-5126,643,3479,1457,169,1
3965,-434,3249,-1282,4834,-1748,-13537,-1471,1218
3965,-1402,5669,129,7478,-2405,-23385,-2100,1434
3965,-267,-726,-5159,-340,357,4953,427,80
3965,-1617,-400,-6084,-260,-1073,4217,407,177
3965,-1885,91,-7417,577,-1401,741,83,270
3965,-792,-620,-3908,-287,2105,4503,769,-451
4023,560,4566,-417,5269,-297,-16427,-1218,557
4023,-1312,-872,-6206,-244,1161,6558,743,128
4023,-1164,-768,-5749,-77,943,5435,685,568
4023,297,-930,1794,76,-246,3766,689,-258
4023,170,-832,426,-35,-2996,3277,599,-201
4023,-1635,-211,-1008,905,-3261,-26,268,16
4023,478,5146,-2730,5808,-1731,-18245,-1250,812
4023,-1114,-1328,-5842,-732,345,7087,623,150
4023,-1408,-630,-5001,-46,1966,3948,446,-24
4023,-1322,-741,-3494,122,2077,2908,361,11
4071,1055,2722,-1067,2761,-326,-4854,296,-330
4071,118,6638,2501,6260,-4994,-18884,-878,198
4071,1145,6476,7751,5935,-4863,-19442,-1169,522
4071,-1577,-1364,-6321,-918,4615,9258,1116,181
4071,-1537,-964,-6345,-697,3416,7877,942,110
4071,534,-466,-6261,172,3184,4901,743,-178
4071,-807,-369,-6130,57,2447,4640,660,-161
4071,-969,149,-5919,355,1410,3050,505,-31
4071,828,2208,-5635,3702,-754,-8362,-757,1651
4071,511,2388,-5668,3931,-822,-9211,-888,1687
4120,-1227,-208,-2738,1328,898,-118,-57,517
4120,82,-1547,-3161,-15,1952,5594,536,343
4120,-769,1945,-1067,3824,1178,-8385,-526,653
4120,-1103,2054,-3829,2350,736,-3227,-132,461
4120,-508,5145,-1653,5512,-672,-15830,-1132,915
4120,4,-3375,-2736,-355,2546,9224,822,322
4120,-1703,-2975,-2217,-334,1789,8407,701,391
4120,-1428,-1916,-1365,-120,2087,6447,551,427
4120,612,22,-15746,687,1326,4322,212,230
4120,521,166,-15868,732,714,4013,175,304
4168,745,2766,1262,4019,1724,-9224,-500,675
4168,-335,1199,673,1870,2392,-1853,-105,464
4168,1046,-515,-146,113,3886,5186,541,129
4168,780,-832,6944,3,6430,4172,638,-25
4168,-157,-348,6747,4,4031,3344,590,-61
4168,-963,-1123,-5271,1013,-3447,2773,231,347
4168,-155,-174,-4154,1031,-4962,1523,-65,494
4168,-1422,3901,-3983,3975,-8012,-10977,-975,940
4168,1302,-1520,-5835,-585,1320,7398,822,-132
4168,1142,-1042,-5181,-353,1329,6078,618,-97
4217,586,5079,-679,6143,-400,-20181,-1688,1290
4217,-848,3094,-1101,4463,209,-14082,-1316,1143
4217,-763,1909,-1398,3472,1080,-10162,-972,980
4217,-739,-3871,-5587,-3444,368,16843,1233,53
4217,-781,-3954,-5808,-2866,1301,17018,1340,-77
4217,995,-433,-4532,-728,1047,4381,470,309
4217,825,-200,-4369,-441,1026,3502,314,226
4217,-650,566,-3709,446,791,239,-47,387
4217,759,316,-3729,104,391,1112,310,651
4217,-843,3767,-1696,3960,-1325,-13343,-855,1500
4266,-968,3656,528,4337,561,-13442,-810,954
4266,-495,25,-653,421,1240,958,150,510
4266,1057,-932,-645,-279,1297,3854,426,367
4266,564,-620,-6351,134,0,3189,66,588
4266,-605,-106,-4029,126,1590,2215,92,418
4266,-526,-1065,-5413,-3118,3534,15198,1159,28
4266,114,-560,-6302,-2760,2656,13794,1422,-204
4266,1714,490,-6857,-1561,156,8821,1172,-185
4266,-1467,-2095,-409,602,888,559,-21,747
4266,-107,-1649,-1271,883,1995,-311,-163,779
4314,-1153,4094,-1349,4353,-2616,-15238,-1087,1033
4314,-472,3317,-1075,3696,-1496,-12224,-906,942
4314,1418,3176,-432,3609,-928,-11646,-924,877
4314,-857,-1075,-2364,-351,1537,3731,525,369
4314,-966,-721,-2067,-111,1636,2870,494,243
4314,-850,230,-4241,-149,336,1957,321,471
4314,-513,357,-3760,-149,595,1585,293,442
4314,859,614,-2914,331,436,-235,106,583
4314,1077,-2204,-2830,-1189,499,8747,954,482
4314,1080,-1520,-2766,-643,593,6399,699,618
4362,1127,4413,725,5105,-1076,-17158,-1345,1316
4362,974,1313,-1544,1556,-623,-4010,-591,906
4362,610,170,-2814,598,-441,73,-140,713
4362,757,3493,-2446,4067,30,-12327,-958,780
4362,-320,3239,-1347,3976,140,-11879,-976,739
4362,-1222,-2195,-4701,-566,2499,5352,370,401
4362,-1286,-1415,-5275,-724,-71,4705,306,1039
4362,205,1495,-1226,-631,1643,3089,627,137
4362,1209,1554,-1466,-330,1027,2311,498,283
4362,-273,2233,-1888,646,857,-966,114,588
4411,422,2051,-8238,1822,-1419,-5531,-439,1009
4411,-1495,-1141,-7381,-864,-1518,5004,277,769
4411,-1362,307,-4818,1243,-2693,-2610,-200,1062
4411,702,-790,-8277,240,1619,2283,-146,724
4411,-712,-164,-10224,14,-1650,1917,-153,630
4411,617,3196,1594,3664,76,-11017,-1139,1156
4411,-955,3124,1694,3709,18,-10613,-971,1081
4411,-750,3310,1815,4029,-351,-11644,-1036,1106
4411,676,-883,-1632,-726,1033,5697,229,915
4411,546,-476,-1344,-253,571,3670,259,874
4460,-404,5279,2506,5919,-530,-19675,-1432,1205
4460,-460,4071,1858,4692,-650,-15313,-1375,1450
4460,1073,2466,995,3500,-567,-10230,-1124,1749
4460,22,-3055,-3566,-1440,5042,12082,892,-277
4460,-1335,-2641,-1216,-815,5248,9565,639,223
4460,-1363,-2101,-7188,-1273,-667,6846,668,535
4460,-1411,-1401,-7002,-1225,37,6190,627,530
4460,-832,-78,-5922,-188,414,2604,246,765
4460,-469,2103,2925,3554,388,-8784,-810,1156
4460,1134,2239,225,3293,-1110,-8333,-738,1046
4509,1247,3493,576,4001,-1482,-10973,-579,64
4509,1104,949,-15,950,-695,-390,26,-155
4509,739,-1049,-1050,-1093,-305,7287,586,-315
4509,-873,-1315,3212,-237,1601,4677,138,650
4509,469,-148,4038,644,1844,1389,21,722
4509,1112,-2575,-2092,-1555,1785,10524,1037,-83
4509,687,-3015,-1339,-1693,1793,9545,1047,-6
4509,365,-2537,-643,-962,1528,6809,773,244
4509,-1471,-1988,-646,-696,763,4267,341,766
4509,-208,-1478,-403,-666,670,3620,395,665
4558,728,2766,-97,1264,-4047,-5074,-191,677
4558,-365,75,-5326,-1814,-6314,7325,790,236
4558,1154,1264,-5866,-336,-6231,2418,506,347
4558,-914,159,-1537,-429,1981,3959,711,-775
4558,-1011,32,-1180,-359,1833,3245,657,-1128
4558,282,522,-4455,80,-4920,1586,411,679
4558,309,1759,-2214,1581,-3199,-4166,-54,810
4558,-1655,-2447,-1269,-755,-290,6820,651,742
4558,31,-1992,-1082,-660,-14,5559,659,517
4558,549,-897,-663,169,90,2016,458,366
4607,-586,4915,1444,5302,-514,-17924,-1146,1058
4607,766,3353,712,3493,-472,-11740,-787,874
4607,613,3349,611,3422,-1098,-12167,-842,906
4607,-1286,-4152,-1710,-2786,3372,15667,1163,469
4607,231,-2987,-1240,-1540,3116,10808,884,504
4607,-554,-772,-1112,-469,2233,4912,1065,111
4607,901,-594,-1209,-318,1872,4215,993,116
4607,501,933,-12398,-1259,-8800,1575,395,-77
4607,-499,2551,-5384,1551,-4122,-7210,-333,69
4607,-456,5298,4303,5791,1855,-21218,-1426,349
4656,-405,1771,1105,1718,1033,-4878,-265,700
4656,-801,-910,-491,-930,2057,5708,565,338
4656,-276,893,768,1160,1407,-1679,206,459
4656,-158,-76,-1181,-710,2078,4501,746,218
4656,-287,328,-1060,-381,1787,3399,544,219
4656,-1753,-3928,-3224,-2686,-1382,14515,704,358
4656,-282,-3140,-132,-1111,542,9076,440,449
4656,-580,-611,1577,-276,1176,3550,778,-99
4656,-276,-324,973,77,2148,2659,689,-13
4656,50,298,1014,1000,2252,-555,325,170
4704,-171,3195,1007,4243,-597,-13013,-805,715
4704,-294,2787,1251,4012,-437,-12084,-771,768
4704,-39,2026,1503,3234,0,-9122,-594,736
4704,1179,-952,-1800,-462,1660,5040,768,56
4704,1060,-858,-1546,-380,1498,4305,690,23
4704,445,-1302,2144,483,2838,2417,179,455
4704,-1051,-746,691,791,1929,1072,61,472
4704,-727,-2417,-1466,-1458,2111,9217,907,-131
4704,-459,-1795,-1288,-902,1843,6880,774,-125
4704,1292,-763,-740,157,1395,2471,502,-58
4753,1376,3919,-43,4062,868,-14716,-949,1004
4753,923,-64,-1643,145,1012,289,117,610
4753,-614,-536,-680,207,1296,936,290,511
4753,-151,815,4005,4114,-2325,-11721,-1154,1354
4753,-166,699,3095,3642,-2821,-10160,-941,1154
4753,1131,126,-2024,-1126,2702,5515,825,-56
4753,-831,469,-2329,-623,2054,3772,576,190
4753,-448,288,-2670,-532,774,3236,689,-1022
4753,-557,524,-2554,-514,713,2830,571,-814
4753,-560,1317,-2140,276,251,-116,227,0
4802,1515,472,-807,796,-7,-2257,227,-842
4802,1075,-1104,-1803,-947,741,4698,811,-1141
4802,-286,1947,45,2434,-151,-7669,-178,-669
4802,-1409,-1590,-3403,-553,453,2923,356,503
4802,456,-851,-2929,-428,-1555,2146,265,487
4802,-1312,2552,1946,2841,509,-10242,-950,1663
4802,540,3620,2412,4263,-348,-14690,-1263,1715
4802,720,-1094,-1354,-1141,-1597,5287,440,812
4802,410,-713,-3867,-893,-1345,4384,458,712
4802,-915,78,-4358,78,-1258,858,162,757
4850,444,3919,1864,4289,1735,-13932,-934,1441
4850,-1266,4995,3622,5366,1304,-18823,-1439,1614
4850,-1170,4019,3772,4626,1499,-16144,-1392,1583
4850,-528,-1889,-3673,-2068,573,10861,879,932
4850,26,-1314,-3176,-1564,-741,8310,1032,-170
4850,300,-1439,-1546,-1471,-1034,5522,694,691
4850,-1048,-1037,-73,-1246,-357,4699,565,618
4850,-624,3085,-399,2525,-2061,-9982,-738,947
4850,-613,2354,460,2225,-1464,-8965,-620,877
4850,813,2208,1785,2117,-742,-9070,-716,983
4898,-731,-1846,-5841,-861,-562,4041,376,510
4898,939,1470,-1264,2899,-1103,-10032,-599,949
4898,-398,-1197,1022,-1525,-1481,6213,640,569
4898,1420,-1068,151,-1365,-1352,5439,553,593
4898,1542,-443,177,-432,-573,2080,236,607
4898,-893,-2112,-1823,-1808,1604,8248,695,443
4898,481,-2032,-1174,-1303,1876,6418,516,596
4898,664,-929,108,-1135,1126,4597,335,204
4898,-1119,-729,-118,-989,892,4149,241,189
4898,849,3301,537,3033,-2952,-12575,-1057,1300
4945,-46,3241,1875,3751,-1551,-13433,-1310,996
4945,782,2484,1969,3073,-923,-10600,-1070,881
4945,1007,-1088,-4629,-1819,-4301,6991,923,-323
4945,842,-837,-2498,-1274,-867,5680,629,414
4945,-1369,-468,-7857,-1528,1492,5276,637,449
4945,-1195,-403,-8994,-1303,216,4629,550,531
4945,204,-150,-9227,-848,-1326,3054,314,559
4945,-57,-3966,468,-2925,-901,12744,776,429
4945,-1682,-4384,859,-3081,-170,14379,1023,380
4945,881,-804,-3288,-1520,-1082,4645,785,24
4994,-746,4074,-1238,3926,-2220,-13660,-747,593
4994,-441,2285,-2356,1524,-2125,-5339,-400,387
4994,624,1828,3968,3256,-219,-8801,-628,850
4994,502,5894,6132,7191,-2791,-23997,-1801,1381
4994,-878,7554,6893,8007,-3346,-28602,-2215,1382
4994,-730,-2807,2828,-1335,8323,8801,1051,-359
4994,-374,-2472,2971,-928,9072,7016,906,-258
4994,1284,-1613,147,-1662,3073,7068,1010,166
4994,1428,-1515,193,-1550,2938,6479,863,192
4994,339,-1910,-1168,-1272,2383,7679,823,380
5043,-596,2508,-379,2259,-496,-7905,-422,880
5043,509,-932,-2268,-1275,571,5649,473,412
5043,-1175,-1279,-1404,-1220,1421,5571,397,430
5043,-1152,-1029,-1145,-781,1046,4059,337,659
5043,321,-423,-605,-1,785,1038,183,745
5043,-457,7065,3578,6897,-2623,-26073,-2012,1859
5043,974,7496,3655,7334,-3215,-26387,-2310,1744
5043,297,-2498,-389,-2181,1923,9249,978,737
5043,-936,-2408,-276,-2115,1816,8248,862,1130
5043,601,-4448,9876,-797,6522,6486,469,-29
5092,92,5485,-15872,3513,-14417,-14226,-1064,427
5092,1132,4228,-15995,1704,-13447,-8040,-697,895
5092,526,-1154,-1990,-2170,4786,10780,870,288
5092,-528,-1001,-1569,-1784,4044,9286,773,235
5092,661,-639,-1344,-1032,1347,5439,520,322
5092,-1203,-2715,2902,-1094,4028,6369,302,167
5092,319,-2107,2714,-799,2612,4997,287,194
5092,-1251,1560,4125,3299,3360,-8485,-1063,1079
5092,-598,-621,2942,678,3569,779,-341,456
5092,-801,-1730,1239,-1204,1964,5313,336,123
5140,571,2857,1851,3970,298,-12650,-1082,718
5140,-748,501,464,1038,18,-2595,-506,318
5140,-1225,-1372,-473,-1359,1243,5808,274,-537
5140,-815,847,898,1122,605,-2760,-190,-147
5140,-303,4399,2963,4870,-1062,-17327,-1276,372
5140,-1172,-3262,1425,-1791,5294,10522,786,199
5140,151,-2816,1965,-1472,6045,8881,750,223
5140,-800,-1688,-1831,-1311,1217,6208,393,669
5140,614,-1527,-199,-1275,-451,5597,339,564
5140,243,-62,5893,2075,-1413,-6551,-753,764
5189,-202,300,-3019,154,-2109,64,206,-697
5189,1514,-92,-3839,-548,-1857,3458,755,-1078
5189,-1520,-2569,-766,-1008,2030,5067,473,343
5189,-864,-1849,-887,-932,622,4150,571,82
5189,667,-912,-75,-413,-420,1066,470,36
5189,367,1489,4633,2339,986,-7875,-345,410
5189,-1294,3490,5378,4270,-436,-15855,-1246,733
5189,796,-438,-6981,-2377,-2095,7884,877,67
5189,419,-731,-5872,-1888,-670,7303,754,86
5189,896,-1316,301,3871,1779,2463,-41,-413
5238,-307,3951,4726,5635,110,-18042,-1739,2325
5238,-1390,3396,4579,3533,-233,-14450,-1474,1875
5238,-1194,-5296,-1587,-5008,754,19193,1721,12
5238,334,-4233,-923,-4321,1163,15005,1580,-59
5238,225,-1824,-739,-503,2116,5768,593,-1227
5238,1775,-1640,-86,-1513,2162,5503,541,-1411
5238,816,-1065,2986,-1694,2543,3330,430,-1554
5238,942,4328,-3738,2514,-3606,-10849,-273,-357
5238,1194,5214,-3674,2592,-2039,-14557,-635,214
5238,-142,-3713,668,-1020,-1606,6951,678,515
5287,-374,-1433,20513,1420,7008,-695,-149,1233
5287,-182,-2702,16260,-1013,1612,7380,350,1558
5287,-1458,-1028,-1358,-910,2777,4763,499,2142
5287,-1215,-840,-983,-768,1652,4127,380,2009
5287,446,-3099,-5033,-3596,26,15946,1595,503
5287,-1146,-1856,-4746,-2690,-875,12061,1343,388
5287,-976,-673,-3946,-1451,-1547,7058,982,452
5287,-1425,-411,-435,-229,1190,2139,117,452
5287,-1150,-415,-417,-24,717,578,82,402
5287,-1221,3796,2063,4750,-835,-16923,-3681,5419
5334,0,3790,1891,3918,-2011,-15736,-1933,4604
5334,-1015,2929,1078,2939,-1998,-11362,-1350,3497
5334,962,-2078,-1779,-1610,614,5348,2265,123
5334,-541,-1503,-1149,-959,455,3397,397,1236
5334,-860,-1233,-1155,-931,455,4146,1147,1028
5334,-357,-985,-955,-542,513,3308,1263,120
5334,-828,-2937,-843,-2729,1101,12105,1539,259
5334,707,-1349,-2461,-2141,134,8714,1861,443
5334,-470,255,-5185,-1721,-1857,5059,2019,168
5334,-1220,-1219,919,-1402,2946,3053,1216,-2395
5383,1070,2482,-3016,1883,-5386,-6096,-132,1498
5383,2473,-194,-3165,-588,-3313,3855,617,-773
5383,351,2247,5068,3717,-3007,-11318,-839,-853
5383,1892,2249,3305,3251,-3186,-10089,-458,-850
5383,687,-883,-5896,-1294,387,6673,788,-476
5383,148,-647,-2640,-1006,461,5128,595,-167
5383,-2613,-1909,-777,-548,955,3569,350,377
5383,-1720,-1363,-685,-343,1057,3028,320,348
5383,-69,-210,594,691,1811,-159,34,401
5383,-1161,-1747,3436,-979,2348,7002,657,60
5432,173,1503,3384,3123,-464,-9252,-666,433
5432,-1469,-1742,312,-240,737,3551,349,36
5432,-1065,131,-2650,-31,-2299,2577,13,1697
5432,-1044,258,-1647,451,-1023,1790,90,1310
5432,2082,2991,2769,304,135,-8756,-987,583
5432,1653,2991,2549,1763,340,-8911,-886,515
5432,-1416,-2583,6617,-488,4717,5145,340,555
5432,272,-2341,5585,-89,4757,4165,419,581
5432,1430,-1293,4551,811,4467,1071,617,-13
5432,2615,-323,-270,-1022,-125,2999,1082,-1635
5481,-1047,4347,2501,4780,-1926,-17671,-1026,774
5481,-2535,4715,1907,4940,-2593,-18623,-1302,516
5481,118,-1781,-3339,-2298,-555,9624,897,-661
5481,601,-1187,-4953,-2110,-1931,8679,880,-665
5481,-949,-875,-250,-1381,659,4068,480,663
5481,-1800,-710,834,-1271,1372,2976,431,618
5481,-1809,1500,5123,2595,-238,-9640,-900,502
5481,-1709,883,5456,2730,463,-8343,-760,578
5481,-1283,1193,5479,4128,639,-10387,-1024,750
5481,-436,-763,-948,-1065,-377,5150,-1833,4277
5530,-761,1069,4083,1879,3223,-5714,72,-999
5530,-784,-1904,1769,-1427,2437,6818,935,-1058
5530,748,349,-2515,-1149,-178,4161,979,2387
5530,-712,781,-2040,-313,-75,1648,609,2494
5530,934,-1555,-1201,-614,898,9107,-1472,1336
5530,-969,-957,-1002,245,641,6984,-2057,1335
5530,-712,-16,-576,1331,293,3323,-2983,1787
5530,-138,-7,-4046,-3031,-4796,6059,3809,-3212
5530,1600,188,-2442,-2021,-2565,3838,2838,-2989
5530,-705,3870,1030,2177,-1955,-9150,-1132,-225
5579,311,-1853,466,-1943,2070,5990,1250,1248
5579,76,-2171,326,-2375,2438,6531,1629,1534
5579,-543,116,-721,-1656,707,3906,1863,-2020
5579,-578,192,-655,-767,518,3132,2054,-2691
5579,2823,1072,-113,-221,642,940,964,-1268
5579,1102,2186,312,1019,162,-3090,623,-1012
5579,1594,6091,2240,4944,-1637,-17890,-357,-553
5579,1963,120,-1329,121,-176,6901,1073,-777
5579,798,935,-718,1615,-227,3190,720,141
5579,-940,1285,-179,-1534,689,1380,37,1223
5675,-540,1001,740,-745,386,38,297,2197
5675,-1498,964,-103,-2597,339,3757,1287,-2159
5675,-1313,931,-192,-3673,251,5675,509,5060
5675,626,1156,-2,-3564,61,3568,183,4638
5675,-2040,-2149,-289,-2352,715,11675,267,392
5675,-1252,-1433,-38,-1370,965,8468,272,395
5675,-2879,657,605,-1769,90,4038,571,997
5675,-1222,694,660,-1069,261,2791,349,1351
5675,-1594,914,670,-152,233,1424,324,1597
5675,-1677,1063,845,-1808,65,1920,532,1032
5723,-633,4310,3071,1302,-2268,-12100,-275,1484
5723,-2397,3999,2987,1608,-2108,-12334,-838,1681
5723,-3547,-711,220,-2247,-403,6646,704,3136
5723,-1135,204,548,-54,-886,2103,46,2506
5723,-426,-26,617,-1970,175,3442,1750,-2783
5723,-391,320,482,-1590,-18,2531,1425,-2572
5723,-1231,-1202,943,-3459,-271,6424,359,4530
5723,-77,-2035,319,-3901,463,8945,681,3720
5723,-1179,-1123,581,-2816,345,5297,511,1855
5723,-997,-976,2646,-1539,1884,2077,452,956
5772,774,2704,7026,924,648,-7070,-758,1712
5772,735,177,5107,-1616,2142,3189,87,1589
5772,652,4563,1031,1509,-4163,-11750,-900,2767
5772,664,4272,1156,1551,-3458,-11334,-788,3003
5772,168,920,-1573,-2491,1531,6669,1216,-409
5772,342,977,-907,-1522,853,4241,883,-468
5772,1846,835,383,-1722,386,2457,540,2362
5772,1612,858,484,-1306,348,1671,289,2547
5772,271,1518,697,-422,72,-1023,213,2598
5772,-3820,-1149,116,-264,979,7851,231,2037
5820,-2033,3383,2258,1705,-550,-10287,-998,5143
5820,-770,3324,2341,1263,-1135,-8297,-804,4912
5820,-3834,-373,864,-2311,676,3111,-477,3620
5820,-1395,210,889,-3387,299,5283,322,927
5820,421,5107,2915,3502,-2141,-13884,-1073,-3443
5820,2224,4266,2442,2748,-1961,-11024,-713,-3783
5820,-3376,-979,839,1912,975,4735,-114,3064
5820,-2893,-541,814,1130,426,3767,625,1825
5820,-3631,-564,1732,1624,1240,2514,-5229,-1807
5820,-2597,-471,1632,896,955,2406,-4173,-996
5868,-1173,3256,2483,-1066,-1389,-7308,6227,-1184
5868,-1688,2439,3535,1275,-2957,-7833,-96,841
5868,-2205,4995,4901,4239,-3665,-18458,-976,1429
5868,-1496,2267,3236,1069,-2508,-6651,-250,1077
5868,-1352,-2426,1114,-4110,155,9664,1257,355
5868,-691,-2533,1084,-3420,334,8420,925,213
5868,1058,4504,4629,2349,-2225,-13535,-849,-530
5868,483,3162,4045,1416,-2086,-9126,-889,2297
5868,-1014,-1536,2164,-3771,731,9691,274,588
5868,502,-1360,2050,-3537,546,9097,602,250
5927,783,-408,2177,-3236,-580,7252,450,-371
5927,-467,-185,2252,-3196,-464,7773,671,623
5927,1139,-159,2137,-2977,-520,6921,393,854
5927,1827,388,2325,-1998,-742,3663,-111,960
5927,-2255,-2781,612,-6258,-775,18961,2052,1898
5927,-2463,-1833,816,-5108,-848,14378,1761,1141
5927,-4673,-1318,2726,-3021,-488,6236,-227,7324
5927,-2362,-736,2763,-2744,-739,4093,-409,8156
5927,2150,4212,5712,1044,-3147,-15766,-1635,11281
5927,6492,3925,4507,-1185,-3437,-10035,-113,6286
5976,1692,3429,4518,1658,-3097,-10167,-1400,-6733
5976,871,1014,3145,-841,-2322,-607,-1361,-2629
5976,-1524,-1172,1950,-2670,-1151,7444,75,-1414
5976,-1579,-1228,2324,-2804,-367,7474,1665,-2187
5976,46,-793,2218,-2382,-575,6096,1852,-3549
5976,253,-3146,1685,-7092,-1886,16553,-749,3316
5976,494,-3890,1284,-6388,-628,18474,1070,3556
5976,-1819,-2736,2091,-4124,-480,11568,1111,2686
5976,-518,-912,2777,-58,-167,4050,760,-230
5976,433,-622,2941,1008,-147,2445,709,1273
6024,1899,3101,5884,1060,-3299,-10560,-132,4216
6024,1878,2360,5274,764,-2941,-8155,346,4842
6024,323,2003,5176,1356,-2717,-7920,365,4695
6024,882,-1512,3334,-3798,-532,6998,1218,795
6024,1902,-1073,3237,-2434,-458,5619,988,3857
6024,1286,-1040,4034,-3760,-866,6078,521,6066
6024,218,-874,3912,-3435,-874,4909,751,6561
6024,-1695,-361,3980,-2352,-1083,2093,1229,2264
6024,2461,-2908,3880,-1302,469,9169,-106,-2167
6024,2869,-2359,4354,243,727,5454,-572,249
6073,-3215,1537,7256,187,-2221,-8678,-1117,-3965
6073,-3533,-1978,5429,-2747,-599,4245,-743,2776
6073,-272,-1375,5698,-1133,-349,776,-1104,5720
6073,-4427,1116,6960,3602,-1430,-6909,-3111,-13157
6073,-7263,678,6672,3180,-1025,-5359,-2545,-13466
6073,-3612,-2408,4960,-3734,-19,8687,-5124,3884
6073,-5640,-2260,5160,-2796,406,6722,-3672,2245
6073,-5024,-1426,5307,-1565,295,2930,-1668,976
6073,965,-1859,6048,-1659,1275,4518,2246,2761
6073,4327,-1147,5854,-1244,885,2925,649,5662
6122,-2185,-1276,7429,-1177,-10,3017,2117,3911
6122,-3191,-2015,6412,-2156,386,6222,2436,5121
6122,-3795,1589,7947,1961,-837,-8525,1077,9207
6122,3082,-1185,6734,-2605,279,5808,2311,1379
6122,2515,-1041,6492,-2306,155,5040,2225,5047
6122,-7127,514,10034,1190,-1702,-5407,-3038,3130
6122,-6254,310,9246,473,-1684,-3912,-2202,1056
6122,-3347,2851,9936,2736,-2519,-13506,-2175,-1706
6122,2047,-1910,7959,-1926,1612,9918,2436,-2583
6122,-4111,-1804,8046,-1204,1206,6151,1085,-3673
6170,3656,-769,9639,-419,289,4259,13470,-172
6170,1652,3685,11744,2027,-1954,-13585,2015,-390
6170,1638,3080,10811,334,-2118,-10086,-830,-660
6170,5588,-2849,8359,-6473,813,14506,-4116,69
6170,7775,-2039,7954,-6567,553,12533,-3248,837
6170,5330,-1695,10324,-2990,1197,11578,-961,3072
6170,2707,-1578,9675,-2613,1221,10525,629,5312
6170,3390,-876,9178,-1833,815,8775,2324,4797
6170,5574,2599,11695,-194,-1984,-4661,373,-15398
6170,3121,2060,11218,-298,-2060,-4401,2069,-17926
6219,12793,1644,12705,-2476,-2009,976,3162,-8795
6219,10144,-1321,11032,-4474,-569,10830,2700,-5755
6219,6079,-176,11786,-1825,-541,3667,1217,-2345
6219,-5880,-2143,13484,-3017,-322,12970,2901,12623
6219,-2730,1730,14674,1087,-1820,-3110,4571,9948
6219,8871,-2396,12913,-5007,-701,25780,-10989,-4064
6219,10782,-1605,11939,-5113,-1393,21909,-11363,-2781
6219,10033,-902,11761,-4480,-2142,15844,-10484,-181
6219,-8141,-2484,14772,-3321,-1216,13452,-2892,3465
6219,-6532,-2034,13984,-2436,-1168,10075,-151,751
6268,-3867,1235,18742,5665,-2811,-8637,1462,3316
6268,-6957,-2307,16307,2696,-1227,4133,777,142
6268,-5540,-2555,15456,3160,-831,4387,-349,1539
6268,7119,-1042,17327,-5217,-1514,-1400,4775,17461
6268,9137,-406,16098,-5538,-1924,1964,5608,9015
6268,-769,821,19183,-4167,-2357,3831,5318,10286
6268,-6022,4349,20103,-50,-3968,-8250,5935,12717
6268,-9417,4308,19345,1179,-4155,-6599,6188,7700
6268,-9172,-2913,18529,-4052,-605,7736,-3903,-240
6268,-9691,-2369,17500,-2766,-993,4097,-10086,6827
6317,-2164,3497,24559,1778,-3035,-11922,1016,-16392
6317,-2161,2384,22477,8,-2801,-7447,-1099,-21933
6317,-4316,2034,21419,144,-2501,-7792,-2346,-19067
6317,16040,2152,20467,-4511,-4127,5506,1529,-34675
6317,18685,-899,16181,-9583,-2577,22474,5558,-35638
6317,662,-358,20819,-4469,-1096,11854,-8793,1191
6317,1899,-330,19952,-3454,-642,10726,1435,-5162
6317,-441,-572,19436,-1641,-71,7542,11114,1371
6317,4933,1492,22679,1682,-377,555,15169,14319
6317,9148,5116,22909,2563,-2619,-10731,9798,4500
6365,-12129,-255,27616,2266,1482,-3063,-7197,8705
6365,-12470,-888,25586,296,1149,1654,-8566,6671
6365,-11436,-2691,22766,-1997,1676,9636,-7442,1334
6365,-988,-2105,23294,-3519,587,11776,11378,-15687
6365,-2508,-1687,21934,-3828,314,12849,11257,-3241
6365,14707,5722,26282,1331,-4333,-11669,-2675,-5722
6365,17063,5579,24533,-473,-4466,-8689,-1609,-1546
6365,17819,898,20423,-5723,-2448,10779,-3182,4683
6365,-4836,-3728,23606,-2921,1878,8954,7008,20075
6365,-4047,-2905,22079,-2947,885,7218,3121,16329
6413,714,2014,26891,-437,-2253,-9512,-577,2578
6413,2357,1828,25362,39,-1998,-9641,-836,1696
6413,-736,998,23494,-154,-1643,-5757,240,1703
6413,175,-3008,23513,-4479,1233,7883,11126,26240
6413,-1344,-2598,22415,-5243,664,16856,6417,30951
6413,8701,-1808,23665,-6120,-21,11764,7688,2493
6413,7154,-1832,22559,-4906,-3,11826,2571,2990
6413,435,-666,24680,-2119,-1665,1341,-10935,6959
6413,-4563,-4842,21510,-6055,408,20507,-6188,12762
6413,-4570,-4123,20876,-5154,699,21078,2297,10642
6462,-2517,791,24912,-1245,-2378,6818,-1230,-14560
6462,-2393,-2525,22085,-4140,-574,15165,11622,-12907
6462,-278,-2066,21469,-2824,132,4219,18802,-12334
6462,1303,599,24585,434,-1154,-8550,6565,-1825
6462,2113,235,23513,1079,-695,-11082,2315,2542
6462,11281,-1084,20320,-5299,-713,12422,721,-18322
6462,657,-2617,20284,-4076,247,10616,-1413,-7166
6462,-11816,-3587,20171,-2266,940,6874,-4286,3642
6462,-81,-2348,20416,-3372,232,5487,-6931,-993
6462,2119,-1859,19311,-3584,430,8292,-7562,-2211
6511,4389,2926,22432,927,-1731,-6067,-6401,16476
6511,926,-29,19724,-3541,-1607,7141,429,21780
6511,-1195,-1585,17661,-5910,-1514,14167,5973,14872
6511,-4080,-2657,19675,-1760,792,3294,-25058,-4966
6511,-10427,-3060,19311,-1727,969,4955,-21858,2351
6511,-660,975,20753,1255,-1689,-14728,-4485,-3620
6511,-3202,85,20046,142,-1130,-8112,553,-2467
6511,-3623,383,19401,-99,-1172,-4116,911,-575
6511,-6566,-4434,17854,-1395,1821,3745,1076,20533
6511,-3941,-3313,16638,-2098,1167,3930,4334,17189
6560,2993,3789,20157,3138,-2437,-13060,1936,-1439
6560,2022,2567,18336,1223,-2570,-5642,1903,-13325
6560,1450,1918,17020,647,-2513,-3796,3614,-25272
6560,8051,-2832,13455,-2820,-16,12392,2696,-5106
6560,9760,-2340,12871,-3514,-142,12677,2973,-12752
6560,-2245,-3295,14855,-3549,808,13892,-2099,5126
6560,-558,-2890,13959,-3084,796,13426,2585,13296
6560,4107,-1929,13248,-2309,601,11947,7826,16139
6560,2089,624,15517,1626,-803,2898,-12698,-12544
6560,2194,858,14262,1530,-1123,1649,-25,-17327
6609,4216,-1907,12787,-2118,-810,-2065,5456,-12206
6609,4398,-2173,11814,-2850,-552,1897,3312,-9664
6609,3551,2054,13322,1312,-2180,-9592,3738,-5183
6609,-11022,-2950,12123,-4982,235,9785,-16344,6496
6609,-12584,-1502,12878,-476,-141,-8003,-23518,11948
6609,9300,-3090,10403,-3013,681,20616,20064,-12943
6609,15697,-1792,9315,-4096,105,19166,17433,-24875
6609,18780,-855,8649,-4272,-69,11839,8692,-20934
6609,-11395,-2803,10572,-1687,735,5953,-5632,6333
6609,-9311,-2093,10060,-143,483,-1919,-6387,220
6658,-8144,-370,12654,4744,-64,-7863,14548,-8231
6658,-2870,-3162,9077,-1661,673,9619,6385,-9869
6658,-4182,-1173,9255,320,-113,4465,5744,-488
6658,-2461,-2468,8793,-1812,-38,-3476,-3873,-5835
6658,-2015,-2299,8400,-1757,-24,-1082,-4878,-4488
6658,12445,188,7559,-2084,-1438,-3841,12980,-22991
6658,2255,1450,9386,1697,-1966,-15305,3165,-5142
6658,-9337,1905,11009,4680,-1960,-22732,-1521,13188
6658,4077,-3617,7405,-3634,843,31414,-7943,16248
6658,6163,-2568,6581,-4544,50,30290,-11124,6831
6707,3329,3990,9369,796,-4089,-10031,-1589,-6724
6707,2894,2786,8603,524,-3483,-12154,-2775,-11962
6707,2755,1386,8105,1393,-2324,-13180,-2772,-10021
6707,-5840,-5726,5289,-1649,1249,7288,-1640,4998
6707,-1681,-4428,5472,-244,1229,4016,-1027,-1574
6707,451,-2769,5579,-1254,23,2486,2603,-9610
6707,-590,-2741,5451,177,739,2668,1618,-4931
6707,-1736,-1843,5513,939,389,-242,1215,2559
6707,1496,1704,7875,907,-1611,-12877,-6624,6905
6707,-322,2618,7674,1302,-2584,-12967,472,76
6756,3122,-1823,5204,-1742,-1267,-2878,-3873,3980
6756,658,-3162,4372,-1965,-229,1150,-1329,8336
6756,-2819,-3170,4905,-1191,349,3804,4254,8196
6756,18741,1014,3229,-3128,-1028,5325,-6387,-16639
6756,18586,1719,2476,-3263,-1726,6624,-3814,-20693
6756,-906,-5129,3939,-2766,-260,9230,-8121,4486
6756,-3288,-4913,2863,-3477,-468,12135,-5915,739
6756,-8581,-3853,3434,-2096,-785,10939,-5800,3464
6756,-5627,-3553,4566,-246,1139,1110,-11597,15
6756,-4240,-2702,4394,18,1003,3343,-14148,-501
6803,-5336,1914,7560,5979,-1823,-28515,2330,-2398
6803,-1913,1090,6870,3728,-1849,-19353,293,4888
6803,124,816,6168,2338,-1945,-13923,443,7364
6803,5240,-2688,2913,-3635,692,14825,9102,21851
6803,10092,-1273,2278,-3888,-223,5855,9278,19863
6803,-2217,-2860,3576,-4770,943,8980,-2924,-1742
6803,1620,-1510,2696,-5492,224,6144,-2746,-6442
6803,-6870,-3807,1735,-5058,-517,15057,6315,838
6803,-6167,-2719,1546,-4481,-817,13389,4668,3683
6803,-6116,-1756,2225,-2699,-760,8612,2272,4967
6852,-8261,-1340,3964,1934,-151,-13235,-977,2626
6852,-3884,-2401,2870,81,329,-4534,5358,-975
6852,-1578,970,4388,2775,-1172,-13178,11092,-2611
6852,2437,1820,3977,2701,-2657,-16417,-299,-4800
6852,80,1163,4135,2408,-1339,-8015,1818,-3252
6852,9815,-1608,1202,-4902,-963,15658,11215,-4455
6852,11022,-732,889,-2959,-903,9016,8585,-8639
6852,-5127,-2274,1986,-964,410,5401,-7178,-6330
6852,-7943,-2869,2195,76,855,2254,-5998,-3566
6852,-6713,-1900,2088,605,51,-196,288,-3183
6901,-3145,424,3482,1875,-1527,-5596,728,-3112
6901,-2362,537,3262,1486,-1788,-5220,808,-2287
6901,723,-1230,1516,-1098,-1057,1905,-8158,2151
6901,1004,-1883,1163,-4121,-713,12463,-2058,2027
6901,-2807,-2052,1305,-2877,-396,6620,1511,1024
6901,8115,2048,2929,2489,-2593,-17285,-5998,1607
6901,6690,1915,2427,2030,-2655,-15044,2188,-10549
6901,1722,1570,2573,2853,-2431,-12664,9232,-12122
6901,-9135,-3794,638,-1858,1109,10079,2818,3179
6901,-5903,-3648,499,-1320,837,8411,1967,621
6950,-4005,2653,3556,5663,-1655,-16107,7086,847
6950,-8162,849,3801,5317,-1361,-13556,8968,-3066
6950,-9030,-610,3199,3222,-1302,-9142,10039,-5359
6950,1632,-4074,-623,-3684,814,13718,-3944,4588
6950,49,-3114,-639,-3296,101,15421,-2769,-6035
6950,-5739,-3061,-51,-3997,-189,14975,-1709,6575
6950,-6951,-3376,388,-1887,573,9737,-1818,4867
6950,-2812,-2566,1070,1640,944,-3177,-3947,2655
6950,8615,2225,1083,2733,-2187,-9906,1627,-16673
6950,6023,2499,741,558,-2867,-9510,1419,-11394
6999,3477,-1547,1106,-2908,-210,2549,7182,386
6999,5404,-3038,-135,-4940,626,11248,7872,-3181
6999,11168,911,151,-2026,-1233,-1000,8384,-15711
6999,513,-2121,-534,-1896,-754,5034,-15235,3195
6999,1934,1611,1739,1759,-2289,-6013,-17488,1420
6999,3390,-2630,-1419,-1701,-160,2415,2080,-5751
6999,-1045,-2325,-1502,-1507,-572,-1587,-975,163
6999,-2647,-1765,-850,-1027,-864,-3916,-1575,7046
6999,4053,-2060,-313,-754,63,3214,3728,-1769
6999,4546,-1550,-662,-1721,-733,11998,4587,5539
7046,-3349,5736,4769,6543,-4648,-24708,-2534,2903
7046,-1346,2958,2760,3048,-3963,-13741,-2067,1264
7046,-3024,-3338,-523,-2863,-951,10026,-137,3186
7046,-2203,-3529,-223,-2728,993,7210,-2255,440
7046,1775,-3003,4,-924,1340,1557,532,5167
7046,1439,-1807,-924,-3662,17,10559,5305,-7653
7046,5708,-811,-1116,-3301,-922,8833,6166,-9196
7046,-4571,-4815,-1264,-1986,826,7475,3120,10694
7046,-12122,-5229,-74,-663,1594,5442,4588,-2040
7046,1849,-1467,-769,-3946,0,13442,-1967,44
7095,3103,1674,-716,-2402,-2916,4840,4280,-3717
7095,-3515,-2196,-904,-2603,-468,4499,-2604,563
7095,-766,5294,3545,4384,-4246,-26971,-7797,8612
7095,256,4663,3116,3980,-4186,-29749,-9792,9364
7095,903,2780,1378,1438,-3682,-15773,-6546,4067
7095,-1293,-3003,-1654,-2567,886,6131,-3470,-4390
7095,-2070,-2735,-1477,-3092,801,10558,-1148,247
7095,5979,-1328,-1900,-4258,174,19655,6679,-8289
7095,4652,-860,-1551,-2818,25,7957,8117,-7728
7095,-6865,-3268,-1278,-5985,-411,20542,-4806,4475
7144,5318,-2043,-1005,-703,-109,4374,1788,-6990
7144,9582,-1066,-1365,-335,-297,-1080,2109,-6181
7144,-2829,-3086,-229,-2929,448,17600,13171,-10024
7144,-3597,-2433,-403,-2967,262,11459,5025,-5705
7144,-4674,-1538,-128,-2253,-75,3806,-4953,-165
7144,-60,4510,4070,7444,-3976,-26506,-4430,2307
7144,-2251,3254,3494,5875,-3481,-22002,-8248,3871
7144,357,-3453,-1002,-3540,1127,9708,4077,1417
7144,-80,-2845,-1053,-4299,757,16331,5068,-2555
7144,-1896,-3390,-485,-1211,1393,929,3490,10568
7192,-1266,3118,2275,3133,-1739,-10854,3038,10118
7192,-733,2064,1849,2009,-2260,-13901,2453,8678
7192,2089,-3293,-2379,-3994,-580,9910,-512,2098
7192,7077,-2405,-1984,-1436,-288,1162,-4028,-4540
7192,-3991,-3142,-576,-329,1026,-1893,6107,4332
7192,-2683,-2625,-586,-1585,965,2990,5651,5989
7192,-1928,-1603,-418,-1914,348,5275,5424,4179
7192,7476,3209,-149,424,-3662,-5233,9058,-17699
7192,2731,-1237,-1487,-1508,-1218,2366,3741,-12795
7192,-9972,-2966,-974,-1244,876,5123,-6307,3913
7241,1728,-363,-993,-1057,-1225,354,-3738,-9849
7241,-160,-2411,-1314,-1248,66,3755,6532,-7129
7241,7201,2267,977,2981,-1961,-13162,3113,-8783
7241,8050,2800,346,1496,-2923,-10551,1932,-7764
7241,6884,3592,300,1245,-3535,-8840,738,-6736
7241,7043,-2981,-1308,-2523,1496,1209,-3257,9014
7241,8530,-1624,-1194,-2172,1155,181,-3748,5399
7241,-1576,-3601,-118,-1238,1706,1926,-7735,425
7241,2137,-2490,-737,-2549,418,7022,-4857,3774
7241,4294,-3139,-1424,-1302,-21,-13594,-484,-16268
7290,-12555,-1360,1086,-1070,-592,12092,-7499,8041
7290,-11453,-4412,-307,-3406,685,11045,-12500,9813
7290,-9202,-3923,384,629,1918,-1787,257,18798
7290,-7705,-3705,338,761,2031,-1664,2180,16893
7290,-6972,-2956,178,95,1499,-843,3623,9120
7290,11613,3283,445,442,-3259,2526,2963,6627
7290,8968,3196,185,427,-3190,-164,7334,3961
7290,-2636,-2291,-1245,-2652,497,12894,2353,4828
7290,-1621,-1865,-1132,-3184,-151,14351,2260,3476
7290,1600,-1215,-1415,-1177,285,7671,-3214,-10571
7339,-1832,2931,1761,3382,-3147,-22071,-4938,4203
7339,-2575,1531,1011,1524,-2866,-14611,-3208,-205
7339,3838,-4382,-1560,-3087,479,13701,-3317,2995
7339,5197,-5032,-2665,-5160,1107,20833,-1964,-10487
7339,5224,-3200,-2161,-3885,675,16095,-457,-18135
7339,-4962,-1557,-938,88,1092,-5303,8181,5543
7339,-3546,-1453,-755,1084,1158,-5113,4214,10428
7339,5375,3902,473,485,-2837,-11255,2574,-1299
7339,3700,2238,896,716,-1991,-9435,1663,7517
7339,-17978,-5466,2113,475,2603,-9594,-29470,14515
7387,1582,2751,2570,3302,-481,-16800,12269,-1430
7387,2886,42,915,605,673,-5381,7426,-4449
7387,-1734,1,-2683,-3825,-1210,-911,-280,-4239
7387,-4226,-823,-470,-2464,-320,-1050,-695,857
7387,-5966,-1002,2217,-969,178,-2345,144,4335
7387,-875,-4531,-2857,-7617,405,19022,-1820,6682
7387,-2263,-3567,-2361,-6858,117,13978,-7680,6303
7387,-11056,-3250,-286,715,1369,-3999,-250,6543
7387,-8412,-2307,-630,1085,1048,-4117,-2004,6910
7387,2126,2930,428,2149,-2931,-19421,-3980,-7121
7434,-1705,1885,1898,5817,-1408,-32148,-3456,-149
7434,-1426,1903,1393,3690,-2006,-18841,1891,-1803
7434,4797,-1673,-1578,-3218,-108,10011,1591,-4812
7434,3500,-1152,-1151,-1841,-139,7631,-2969,-5904
7434,-13215,-2518,-1003,-1108,637,5482,-68,12213
7434,-6735,-2474,-396,-713,1216,5929,2594,1919
7434,1196,-1159,46,-35,1066,2782,2370,-9242
7434,-2109,3948,2954,5835,-3183,-21762,-2389,286
7434,1754,2168,1016,2865,-2787,-13411,-4019,-1961
7434,517,-2040,-1671,-783,1118,1961,1755,-3844
7482,2019,1905,-445,-374,-384,6808,1941,-2963
7482,-1055,2537,585,2042,-686,-1962,1133,2818
7482,-546,1135,407,820,-1719,-6319,6097,-11121
7482,-11222,-768,1492,1125,-549,-6544,6670,-6990
7482,-4173,-3812,-1608,-1915,2122,5642,8761,-6228
7482,-2141,-2643,-1365,-2341,1631,8159,9052,4999
7482,-1263,-2578,-1787,-3167,435,15044,-5024,3740
7482,-1473,-2363,-1409,-2856,454,13722,-8118,2197
7482,710,-1187,-927,-2134,150,11743,-7778,-2276
7482,622,-3814,-2614,-2550,-76,9748,2189,3330
7531,10254,-934,-1565,-273,-782,-8223,501,-148
7531,17344,-36,-2586,-1215,-909,712,1664,-7393
7531,1722,-687,-2390,-1239,-729,1766,6312,-5148
7531,-1836,-1023,-2003,-1418,-1076,3975,4810,4016
7531,-5808,1184,1542,2268,-1340,-19680,1265,-265
7531,-4549,1444,1424,1937,-1315,-16521,-2477,-2573
7531,-2246,2264,1280,2100,-1746,-16681,-3370,1279
7531,3211,-1543,-1515,-2594,467,11131,8062,-7219
7531,-3075,-1498,-949,-2414,118,7542,4675,-3736
7531,1133,-1797,-946,-1185,881,516,5342,2348
7580,-7916,3049,2086,2700,-2526,-15894,-6555,2239
7580,-4883,1635,1382,1673,-2153,-10781,-3379,1717
7580,1233,-4386,-3194,-7417,338,28583,1671,-597
7580,2821,-3561,-2624,-6482,370,27080,3626,-1473
7580,4542,-806,-2135,-4996,-593,2848,-6581,-2402
7580,3069,-1204,-1932,-4093,-472,5476,-8550,-2105
7580,1746,-1235,-1457,-3917,-657,16263,-7608,2113
7580,-1005,1590,630,2850,-1227,-9803,-1987,3953
7580,-3178,1183,586,2906,-1085,-9897,-511,419
7580,2625,-1191,-2120,-3092,27,9744,1795,-3245
7629,9908,-366,-1546,-1282,-211,7220,3025,-9732
7629,8792,-246,-1738,-888,-238,5684,-11810,-8389
7629,-3866,-1153,-946,-1946,938,340,-7472,1953
7629,-3807,-1236,-445,-1008,1326,-200,-10884,8551
7629,-3717,-3444,-1878,-3439,1116,9200,5608,107
7629,547,-2872,-1662,-4560,791,15550,8210,1400
7629,-1907,-2622,-1308,-4462,493,16422,9159,2298
7629,8280,-46,-1901,388,109,6706,3307,-16766
7629,10726,519,-1684,1424,-104,3058,7051,-17746
7629,2858,2442,556,2826,-1905,-13772,-7438,5462
7678,647,2374,324,3948,-1324,-18290,6877,-11096
7678,3764,301,-926,1096,-701,-11440,3384,-6443
7678,3868,155,-1789,1960,1170,-10645,-4689,-377
7678,3594,310,-1483,1159,885,-11429,-2802,656
7678,1242,-730,-1284,-1000,591,2672,1531,4315
7678,1305,-614,-884,-1158,59,92,-3816,7725
7678,-3563,2422,1103,2175,-1449,-13630,-5232,12660
7678,-1998,-2781,-1836,-199,975,4118,11176,681
7678,-1457,-2645,-1450,-263,976,2181,9832,1720
7678,-3707,-1932,-1002,-2177,85,-1717,-845,5756
7727,-1941,3929,2035,3104,-3396,-17201,-671,4522
7727,-2629,3068,1395,1826,-3164,-13761,1758,-3843
7727,2919,3783,2594,4905,-3276,-20268,-4224,5046
7727,-582,619,862,1679,-1953,-10792,-5971,-7494
7727,-8869,-4136,-1759,-2715,275,5995,-5786,-10979
7727,-5854,-2482,-1132,-990,1193,13871,-519,5099
7727,-6268,-3010,-179,2015,1989,-10429,-5546,-5257
7727,-2799,-2508,557,1780,1897,-7046,562,-2634
7727,3392,2014,2600,4408,-103,-11206,390,3508
7727,-8989,-4224,-578,-2540,1056,10581,4623,6349
7776,-2472,-1448,-949,-573,112,627,1530,9745
7776,-2507,-2050,-1397,-600,758,3852,1166,11185
7776,8160,-985,-1262,316,966,3557,-2385,5990
7776,12888,189,-1755,-1211,228,7946,4655,3755
7776,-3311,-387,657,1097,-1446,-2538,-7950,3853
7776,-1720,-4014,-1807,-3007,509,17139,-6026,8144
7776,-6022,-2060,-1655,513,784,2866,8245,3333
7776,-5896,-1923,-1451,538,473,4855,6628,4651
7776,-3832,-966,-1060,-135,-318,2981,-730,8651
7776,-3081,440,-876,-499,126,-3251,8365,-5040
7823,1791,3881,788,2406,-3448,-740,-6812,16697
7823,9478,-1335,-3079,-4321,-868,6472,3692,-11613
7823,9362,-889,-2835,-3170,-606,5060,2941,-18178
7823,7498,-468,-1898,-760,-4,-610,-1354,-18256
7823,-3905,-2005,-1830,-2565,-74,4989,-3089,-4165
7823,-2388,-1567,-1570,-2008,-393,2595,-3139,-3219
7823,-5997,1107,-171,1357,-1474,-10436,-2350,10262
7823,-5769,-2977,-1794,-2991,461,4596,-106,6734
7823,6115,-369,-2045,-4496,-1018,11980,-6575,-3643
7823,5975,257,-2306,-4852,-1547,10274,1991,-9343
7872,2692,157,-757,156,-538,-384,-2885,-1245
7872,-1414,2998,411,1713,-2340,-9567,-2402,-2722
7872,-4645,2050,643,2105,-1769,-11272,-228,1697
7872,-5133,1742,1285,3623,-1411,-16440,-435,4375
7872,-5925,-2900,-1628,-3413,742,10973,-275,527
7872,-6886,-2641,-1328,-3124,732,9550,-1605,1072
7872,5384,-1388,-1566,-1371,172,3481,6620,-4035
7872,4728,-754,-1820,-1089,-109,1613,3173,3038
7872,-16931,-5944,-1030,-324,1266,344,-12463,21140
7872,-17612,-5005,-1136,-411,1184,1100,-14704,24117
7921,-1128,-83,255,3388,248,-8445,1094,-5910
7921,867,-2348,-1010,-275,1131,3199,-297,-384
7921,7972,2210,-2879,-4284,-1618,10490,10734,-7187
7921,6922,2857,-2586,-3890,-1836,12011,851,-2388
7921,-4101,142,2524,6640,127,-18223,5598,-7347
7921,-2029,665,2110,4616,-436,-12316,6937,-6156
7921,-5776,-3022,-551,-11,1075,3028,-3559,414
7921,-5710,-2767,-465,-606,1127,2634,3722,1118
7921,-2161,-2057,-246,-946,1029,610,10313,-918
7921,-5652,-1347,-1248,-3181,-47,5964,-6228,2297
7969,4497,2440,710,4785,-862,-20637,-1905,-8712
7969,4723,10,-951,-307,-2271,15113,1561,-3873
7969,3897,-3280,-3064,-4783,-870,27552,3131,-760
7969,62,-2579,-2509,-4378,-551,18607,1402,6812
7969,-1195,-1263,-1423,-3853,13,6280,-2,-4405
7969,1001,-719,-1203,-3759,42,1752,-1281,-6099
7969,269,2652,1085,2082,-1612,-7197,-335,-5562
7969,-974,2164,914,2989,-1578,-7078,-2923,-3895
7969,-1692,-2882,-407,-942,1067,6750,-6711,-11760
7969,-274,-2250,-645,-2043,598,12404,3739,-4623
8017,5229,2521,-15,1132,-1550,-11642,4071,-2180
8017,94,-1700,-627,2178,1298,-6151,4144,8644
8017,276,-1233,-958,667,514,-2683,4570,-1573
8017,-1766,-606,-969,-499,-350,3335,2763,-7736
8017,3084,-3521,-1945,-3214,-87,15202,13408,-1746
8017,6275,-3523,-1987,-3313,744,15414,8172,1636
8017,3178,-1004,-1446,-1804,70,-415,7911,-1264
8017,3001,-473,-1269,-981,-191,-1339,8255,-1779
8017,3707,4656,897,3495,-2611,-17164,-3883,1926
8017,3514,4197,626,1926,-2943,-8547,-2343,-40
8074,1318,3360,1666,2961,-2064,-14839,-3754,-10263
8074,-1664,-1320,-1260,-1388,794,-3559,-498,-1446
8074,-861,-1483,-932,-1187,891,-2475,-1793,-236
8074,-5152,-1241,-1526,-2438,180,1479,4621,2364
8074,-3001,-858,-1540,-1567,-120,1527,4058,-1021
8074,39,-474,-1256,-358,-172,493,2257,-685
8074,3901,3116,1349,5141,-2890,-17871,-11274,8947
8074,-927,5050,2418,6046,-3758,-20182,-516,-1893
8074,5751,-2370,-1723,-4954,462,11756,-6397,-3212
8074,4126,-1770,-1738,-2820,382,8378,-4579,-2729
8122,5783,4163,1472,4389,-2139,-15773,-20602,-1999
8122,625,2497,997,2010,-1876,-5213,-15523,-7294
8122,-4930,2419,675,1442,-1904,-2574,-12202,-4204
8122,-1250,-3401,-1734,-1247,1840,8369,5195,659
8122,-1952,-2811,-1941,-2472,1201,12091,5471,4746
8122,-5198,-2713,-1271,426,796,2260,-1851,18306
8122,-8404,-2976,-782,508,1153,4490,3472,1580
8122,-9011,-2279,-442,1072,1449,1141,5815,-15776
8122,6956,255,-555,-97,-940,-3034,22,3990
8122,6392,-2382,-2168,-3472,100,9218,2189,3611
8171,75,616,-503,2410,-984,-13907,45,-421
8171,2153,-1299,-2114,-2408,-620,14912,2471,-2090
8171,2554,413,-1003,-1387,-1043,15834,3542,-544
8171,5534,2489,43,1733,-3003,-17477,5061,-2773
8171,5414,1359,582,1788,-2950,-12039,6816,224
8171,-4419,-2639,-2394,473,1389,1239,13340,-9720
8171,-5782,-3132,-1710,1455,1839,-4249,6021,-5419
8171,-5605,-2931,-1093,1018,1587,-4065,1735,441
8171,-2769,-1568,-1422,-4502,355,8144,-2597,11633
8171,-4821,-1582,-1367,-4196,631,8329,-3385,13368
8220,422,1518,784,959,-1974,-5888,-10546,3824
8220,2326,-1360,-1285,-2147,-943,1604,-5944,1668
8220,4640,-1068,-1648,-616,-536,-10723,-5851,323
8220,2608,-750,-1692,-6,623,3405,6919,-4735
8220,3841,14,-1597,-98,-23,4547,-468,-14736
8220,493,1969,577,2692,-2486,-15781,2911,1603
8220,-528,1240,990,2169,-1770,-11751,1233,-1975
8220,-2177,1295,1395,2265,-1754,-11923,-3504,-1143
8220,3831,-643,-2793,956,450,6986,1973,-6919
8220,692,-966,-2230,1502,832,5638,1417,-3836
8269,-2327,3026,1825,3269,-1747,-16523,-1790,5958
8269,-294,1901,984,3001,-1697,-12282,-6345,4474
8269,452,2055,355,3440,-2089,-14750,-11498,2231
8269,-17126,-5425,-2136,-4982,2018,9013,-6158,7190
8269,-14483,-5188,-1437,-4051,1873,9817,-4319,6832
8269,4459,166,-2609,-4072,775,11658,10252,4322
8269,4074,-229,-1971,-4818,682,18078,6490,10651
8269,2056,-424,-1150,-3112,918,11581,338,14034
8269,-4880,1079,789,4535,-1093,-11059,-206,2804
8269,-2678,1122,702,4678,-1089,-8605,1616,4715
8317,6281,1292,1220,2701,1083,-8232,4343,-14740
8317,6185,1085,-18,118,-139,-1158,7431,-18961
8317,5563,-440,-2165,-3334,-882,10033,7880,-16522
8317,6486,-2070,-1437,-1159,1648,-2980,-6339,-11136
8317,7114,-1192,-2222,-2994,22,-813,-1237,-9904
8317,4002,-2933,-3261,-2107,493,11020,3267,-9023
8317,4939,-2272,-2721,-579,237,152,1076,-4378
8317,763,-1453,-1343,-2633,438,6254,3634,4011
8317,2092,-621,-1610,-2137,145,5247,2630,2549
8317,8696,3225,586,2712,-2975,-15587,-7728,-4585
8365,-12798,-338,928,2637,-1617,-9749,-8498,18967
8365,-8450,156,1255,3002,-1380,-11075,-2353,6288
8365,-218,-3075,-912,-2445,1411,8657,1936,8680
8365,-4140,-2991,-759,-1677,1165,6388,3907,1697
8365,-5897,-2240,-337,-917,544,9170,4784,-660
8365,-15394,-2909,-949,1049,1692,6756,5915,5733
8365,-12610,-2851,-266,1456,2056,6360,3080,11966
8365,7510,-608,-1493,-2562,-1976,3896,946,-1316
8365,3404,-3702,-2997,-3896,-65,10544,32,1728
8365,11284,-801,-1489,-291,531,-3139,-2879,-2959
8414,-8084,1131,693,790,-1545,-12352,-3183,8318
8414,-8369,-2653,-766,-2257,245,1565,-3029,8079
8414,4987,3235,109,1247,-2020,-9371,-2623,-2402
8414,5278,6591,1588,4685,-3147,-21040,-3666,2303
8414,6343,8792,2637,6398,-4701,-28230,-3995,4770
8414,170,-2383,-1856,-3608,803,8140,2964,-1001
8414,787,-1884,-1632,-3459,490,11727,2872,-1421
8414,767,-1828,-1756,-4498,210,3260,2100,2221
8414,3205,-1416,-1808,-3663,148,4083,3554,-369
8414,-1030,-2138,-2007,-2321,-362,8576,8392,-3101
8463,-2445,1937,1092,6260,-863,-22136,-5224,94
8463,-1790,-740,-780,2300,-568,-5922,536,-4357
8463,-3073,-1840,-1211,-1829,754,-5189,-5929,5444
8463,-3341,-1449,-1336,-1874,68,-7267,-15362,2558
8463,417,-177,-1325,-573,-964,-12306,-20132,-2858
8463,2299,4999,2662,3413,-3672,-18710,1171,-2907
8463,291,5624,3031,3627,-4407,-20309,801,-1145
8463,-2658,-2965,-1435,-2016,1344,11427,3568,-352
8463,-1289,-2028,-1503,-1744,583,9865,5047,-953
8463,-490,-1733,-1743,-2178,469,7771,2808,-2855
8512,-602,3598,1636,3970,-2273,-14626,676,-1834
8512,-407,2277,1149,2592,-2008,-9612,912,-1936
8512,-603,-2844,-1919,-2802,1104,10421,1287,-1874
8512,-791,-2312,-1944,-3366,370,10077,2064,-1873
8512,-810,-1618,-1663,-2825,220,8030,2339,-1746
8512,-541,-1953,-1572,-1373,931,6535,2096,-1879
8512,-511,-1640,-1375,-1366,732,5811,1939,-1787
8512,957,5229,2427,5832,-3967,-23354,-644,652
8512,-35,2805,1214,3284,-3220,-13336,61,-835
8512,219,-1779,-2602,-1564,350,8975,815,-4570
8561,1203,-1989,-1761,-2491,254,2641,2426,188
8561,-776,-2458,-1956,-3237,545,4628,2307,-208
8561,-3453,1430,439,758,-1009,-10925,1044,667
8561,944,1541,-387,366,-1777,-3741,-4351,-3459
8561,-369,1428,-237,1527,-1639,-5147,-3358,110
8561,-591,-3273,-3013,-3128,931,11353,2415,-632
8561,-1722,-2844,-2822,-2855,837,10418,2298,-218
8561,6991,-1418,-3030,-1528,832,6165,2217,-5624
8561,6135,-804,-2936,-1297,488,4656,970,-3259
8561,7003,-191,-2410,-867,22,1837,-98,-1768
8610,-496,43,-2354,-478,-1040,-622,1196,-462
8610,-2051,-2363,-3260,-2580,251,8261,1762,-685
8610,-1934,-340,-1891,-59,-327,-640,1067,-239
8610,-1375,-1296,-3467,-2726,-59,4946,1907,-898
8610,36,-1071,-3209,-2027,95,3822,1662,-823
8610,372,2733,-1949,1238,-2311,-9914,320,-196
8610,225,2325,-1900,1292,-2088,-8669,337,-207
8610,-1508,-1988,-4872,-2863,546,7534,1730,-605
8610,145,-1638,-4513,-2297,507,5914,1453,-411
8610,488,-791,-3902,-1372,76,2806,1248,-478
8659,713,4782,-2029,3487,-2502,-17498,-543,-984
8659,2232,3753,-2418,2276,-2378,-12624,-12,-2105
8659,3425,2642,-2729,1101,-2002,-8873,442,-1661
8659,2072,-3638,-6795,-3805,1294,18824,1847,4586
8659,866,-2999,-6237,-3636,1184,17168,1852,5885
8659,-3242,-1096,-6342,-2237,1002,3326,1211,-769
8659,-2575,-776,-5943,-1879,915,2419,1136,-958
8659,31,2676,-5002,2232,-1955,-12019,-135,653
8659,-893,2258,-4636,2413,-1609,-10377,401,331
8659,-2927,2536,-4098,2532,-1539,-11168,561,393
8755,145,4420,-5087,3782,-2121,-16469,-724,-207
8755,1252,3951,-4855,3401,-1946,-14763,-682,-165
8755,661,-765,-8055,-1407,1052,3136,964,-896
8755,648,-683,-7653,-1371,887,3004,865,-864
8755,687,-188,-7221,-1106,549,1778,696,-769
8755,726,-783,-7687,-937,980,1045,673,-895
8755,1067,-167,-7208,-69,673,-625,570,-890
8755,-2916,-4338,-9003,-2965,1192,9876,867,754
8755,-1884,-3458,-8176,-2126,1183,8572,883,277
8755,71,225,-8521,-811,730,937,556,-93
8804,-998,1610,-8038,138,-515,-3178,189,-185
8804,513,110,-8191,-899,494,2211,615,-317
8804,-753,3194,-5916,2895,-276,-10843,-368,146
8804,6873,5696,-7244,3951,-2945,-14154,794,-2262
8804,5919,8632,-4893,7141,-4368,-27021,-479,-2400
8804,-1526,-520,-9096,-1971,1127,5217,749,-290
8804,-1421,-101,-8739,-2511,435,3786,761,-346
8804,554,-64,-9590,-804,1564,2593,356,-440
8804,479,85,-9122,-494,1501,1943,255,-439
8804,-901,734,-8237,208,897,-1128,2,-289
8853,-662,2758,-8261,2146,-1030,-8159,-419,-195
8853,591,-397,-9416,-1116,210,4366,495,-484
8853,661,330,-8607,-11,75,760,334,-347
8853,406,-264,-9751,-1083,838,3330,539,-654
8853,-938,-87,-9178,-831,737,2393,463,-528
8853,-538,7864,-5936,7790,-3835,-28440,-2003,722
8853,482,6957,-5781,6925,-3760,-25037,-1891,631
8853,-1420,-1133,-10590,-1673,2201,6640,1025,-923
8853,-1358,-919,-10006,-1506,1993,5915,912,-967
8853,-700,-137,-9131,-733,1562,2964,760,-854
8902,1232,4567,-7664,4792,-1740,-18447,-997,9
8902,-217,4082,-7430,4024,-1988,-15934,-977,3
8902,1052,2712,-7576,2730,-1529,-10636,-576,-84
8902,279,401,-14975,-2059,-1456,9514,1385,-1003
8902,1309,-410,-14015,-1911,-2108,8104,1336,-929
8902,-623,-444,-11317,-870,1871,4445,928,-830
8902,910,-150,-10061,-511,1727,3243,802,-788
8902,-704,5433,-7623,6101,-1927,-21383,-1457,393
8902,456,5662,-7168,5440,-2640,-21457,-1587,435
8902,356,595,-9189,327,-655,-1536,-96,-133
8951,-312,388,-11230,-245,185,-1003,477,-896
8951,-774,-1873,-11666,-1681,1522,7070,1018,-999
8951,-538,296,-9863,792,1023,-1961,405,-635
8951,-294,2675,-10207,2638,-438,-10222,-21,-783
8951,-189,2332,-9739,2540,-244,-8871,-41,-703
8951,-190,-1538,-11817,-1501,3095,8271,1533,-1447
8951,-395,-1172,-10479,-971,2855,6854,1373,-1382
8951,-49,-324,-9109,66,2738,3364,1091,-1230
8951,44,-909,-12501,-441,1889,4091,1154,-1368
8951,1451,-498,-11661,-31,1775,2378,965,-1243
9000,-134,3835,-12323,3602,309,-10347,-59,-1039
9000,-38,627,-13332,35,1538,3391,828,-1354
9000,93,777,-12445,310,1739,2789,832,-1303
9000,1708,-528,-14455,-30,978,3328,1301,-1632
9000,1646,-444,-13631,184,1090,2396,1075,-1448
9000,526,3074,-12480,4349,-457,-12419,-219,-925
9000,1421,2562,-11090,4522,-198,-12627,-300,-795
9000,-357,-3609,-12769,440,3962,5331,1558,-1827
9000,1000,-3173,-12044,89,3624,4650,1491,-1698
9000,1756,-399,-19607,-376,-2266,2538,1353,-2082
9049,215,4503,-11756,5372,-624,-17938,-398,-1179
9049,1647,3201,-11540,3983,-249,-12571,-121,-1212
9049,962,-3347,-14872,-1418,3710,12029,1761,-1872
9049,-614,-2594,-13801,-823,3341,9424,1478,-1741
9049,-620,-1432,-12579,52,2691,4975,1247,-1527
9049,-264,-1566,-13797,237,3124,2275,1152,-1755
9049,-336,-1219,-13084,393,2823,1526,1008,-1677
9049,458,3666,-12434,3887,-142,-13142,-303,-1330
9049,1915,3856,-11735,4574,-64,-13934,-453,-1214
9049,192,-709,-14940,260,3210,2873,1254,-1796
9097,1133,1907,-11834,4764,2054,-13771,-228,-1208
9097,-576,1013,-12070,2853,1932,-7617,169,-1351
9097,788,-628,-14732,707,3149,2609,1054,-1843
9097,2091,3,-13895,890,3772,1764,891,-1655
9097,2297,1213,-12654,1481,3283,-1035,680,-1523
9097,1550,-988,-13874,-44,2710,6782,1217,-1713
9097,1299,-791,-13218,198,2483,5271,1005,-1548
9097,-1085,-2892,-11014,1366,5476,1490,1035,-1936
9097,-835,-2036,-10403,1907,5925,-516,750,-1694
9097,1245,3693,-10719,5103,-365,-16169,-643,-1070
9145,-323,610,-11476,4267,-295,-12357,-565,-733
9145,-1871,527,-10936,4006,-369,-11309,-574,-655
9145,-846,112,-14459,287,2188,3199,1087,-1862
9145,-181,365,-13453,466,2070,1876,977,-1761
9145,1623,1100,-12245,1197,1884,-1318,689,-1568
9145,-86,-609,-14393,207,718,1395,719,-1565
9145,1057,-622,-12973,662,968,287,674,-1461
9145,-766,-868,-11940,641,2363,2783,261,-1318
9145,-590,-3420,-12136,-1743,4816,12212,1220,-1601
9145,-709,-1478,-11496,833,2324,1495,787,-1851
9194,485,2317,-10973,3591,170,-10808,-150,-1453
9194,-972,-1145,-11347,103,-408,2101,802,-1817
9194,-838,1591,-8276,4346,401,-11416,-289,-1029
9194,502,5299,-5950,7986,-3203,-25931,-1468,-434
9194,551,7031,-5097,8923,-5594,-31135,-2087,-169
9194,-972,-1640,-10525,-472,4366,5341,832,-2002
9194,-799,-1192,-10333,-158,3123,4016,749,-1886
9194,-859,-3068,-12306,243,2056,3410,725,-1871
9194,381,-2547,-11111,365,1876,3013,669,-1772
9194,218,-2559,-11428,370,2838,4574,609,-1727
9243,94,2912,-7464,5086,686,-14349,-754,-1231
9243,-131,-268,-8657,1544,1419,-1442,62,-1583
9243,734,-251,-11074,301,2136,3027,695,-1996
9243,575,-131,-11613,259,1717,2854,635,-1903
9243,-883,443,-12293,563,610,1043,507,-1808
9243,-1337,3437,-8809,4110,-4250,-12417,-647,-1350
9243,236,6686,-8965,7774,-6056,-26770,-1766,-797
9243,-842,-1850,-13026,175,-327,4805,899,-1995
9243,-1642,-1033,-13190,567,-1008,3004,622,-1760
9243,-1365,-2858,-6959,384,949,3072,740,-2122
9291,-1065,2070,-3237,5382,1659,-16317,-716,-1304
9291,471,2752,-2099,5279,1613,-16844,-858,-1138
9291,-1629,-3350,-10239,-482,2833,8945,1454,-2145
9291,-1052,-2687,-9526,-502,2711,7495,1256,-1949
9291,401,-1468,-8689,20,2037,3868,874,-1760
9291,429,-937,-6590,1287,4419,3979,1055,-2135
9291,-788,-316,-6593,1089,4313,2825,994,-1971
9291,343,1390,-7521,3770,2981,-9416,-200,-1246
9291,354,1385,-6249,3447,4339,-7736,-22,-1318
9291,-713,-321,-8391,331,2427,3887,931,-1890
9339,-1292,2961,-1967,4921,3296,-14044,-357,-1237
9339,-1338,554,-4175,1881,1367,-3497,147,-1388
9339,-972,-1430,-9544,262,1719,3914,1062,-1962
9339,185,-741,-9239,800,741,2431,872,-1678
9339,-2394,-3446,-9967,-924,1494,8817,1263,-1500
9339,-1155,-3830,-8594,-501,1784,7353,1174,-1374
9339,-2213,-3317,-7899,-113,1760,5635,1155,-1329
9339,-1959,-2284,-1056,1062,4091,2138,763,-1352
9339,-2065,-2255,-574,1468,3999,398,584,-1278
9339,118,3565,-3173,4283,-1041,-11296,-395,-926
9388,-1154,1988,-8817,3966,-2016,-7559,194,-1154
9388,247,1420,-7637,2822,-1023,-4913,229,-1213
9388,588,780,-5132,1096,3004,2792,854,-1600
9388,199,1173,-6727,850,148,2167,862,-1597
9388,-1327,1829,-8538,1258,-673,-735,751,-1380
9388,-954,681,-9078,1300,1154,1751,932,-1840
9388,752,2753,-7531,3704,592,-7466,100,-1298
9388,103,-1541,-3960,752,2314,4672,989,-1716
9388,-880,-1288,-5002,984,1739,2960,816,-1572
9388,-1596,-1775,1591,737,2210,2245,605,-1787
9437,-541,5523,-7687,6916,-1354,-20384,-1262,-778
9437,951,4564,-6792,6036,-1230,-17067,-1162,-759
9437,-1048,3456,1832,7592,2994,-19938,-1466,-458
9437,382,587,-1198,3799,4125,-6075,-381,-842
9437,556,-2518,-6074,-330,2302,8863,962,-1429
9437,-1683,-2534,-6547,249,271,5267,850,-1660
9437,-1393,-1713,-5827,1123,91,1872,593,-1398
9437,-1961,-2427,-8836,-149,-188,3539,617,-1573
9437,-1515,852,-5569,3198,-23,-9184,-352,-1039
9437,-381,-1013,-8022,163,1706,6474,1076,-2033
9486,-347,-2154,-3993,1909,1045,-719,607,-1760
9486,-1363,-3529,-5704,-17,2594,6947,1267,-2016
9486,-1188,-2423,-4258,1163,3702,3369,785,-1970
9486,531,-2079,-4685,1495,2387,1772,586,-1788
9486,788,-1383,-4792,2187,847,-1191,338,-1613
9486,867,-2201,-8199,-1081,-91,10476,1134,-1869
9486,-487,-3174,-7378,-1676,2373,13362,1580,-2063
9486,1000,-1368,-3427,1168,1922,2284,961,-1982
9486,532,-1139,-3413,1240,1326,1734,918,-1771
9486,457,-1093,-4580,2151,-2069,-1011,581,-2019
9534,762,2578,-2883,5628,-6141,-14328,-700,-1339
9534,-737,1482,-3174,4639,-3883,-10394,-573,-1230
9534,419,-1098,-9594,1227,3618,4135,954,-2120
9534,613,-953,-9911,956,137,3360,928,-1970
9534,356,-627,-7842,1310,-919,196,732,-1785
9534,-1304,-2372,-2196,1170,2167,1609,689,-1961
9534,177,-1831,-1725,1353,1792,403,612,-1799
9534,1131,-2917,-5610,-987,3207,11032,1343,-2165
9534,929,-1827,-4273,-258,2932,8234,1302,-1984
9534,354,-1063,-792,2048,4601,345,526,-1739
9583,649,-403,-7510,105,-1281,1545,562,-1810
9583,-1009,-295,-4436,1279,-1755,-1434,305,-1558
9583,-1580,2077,3627,4988,2235,-11647,-227,-1623
9583,-1293,2042,-410,4424,-1599,-10373,-117,-1600
9583,-1039,2456,-1241,4620,-2326,-11514,-355,-1390
9583,-64,-3244,1295,488,-931,4336,946,-1889
9583,426,-1774,-6896,194,-5882,3665,936,-1819
9583,213,-912,-600,1961,4819,391,222,-1519
9583,423,-64,-1904,1911,2790,-990,130,-1485
9583,223,-1519,-854,483,4262,5638,1156,-2209
9632,124,3237,-4757,5137,-2735,-14373,-597,-1360
9632,-1316,-238,-4304,1592,-759,-1171,241,-1597
9632,-1114,-2613,-978,1072,4027,2010,753,-2043
9632,508,-2429,-279,1143,3327,1546,789,-1978
9632,419,-1501,461,1855,2458,-1294,503,-1764
9632,-1520,2092,-3262,3943,-2010,-10669,-647,-1282
9632,-169,1477,-2695,4100,-1155,-10464,-578,-1146
9632,339,-2435,3875,659,8866,3470,826,-1882
9632,57,-1696,1924,284,4378,3181,898,-2014
9632,-1272,-180,-777,584,1765,1634,746,-1945
9681,694,6221,-5449,6454,-2884,-21275,-1078,-583
9681,-449,4323,-3602,5004,-2298,-15264,-781,-1143
9681,684,-1149,-8931,-1272,654,10593,1453,-1863
9681,140,-915,-6188,-531,1306,8103,1117,-1619
9681,-1101,37,-4952,446,478,4053,753,-1531
9681,385,1093,-4915,564,5191,2085,598,-1830
9681,-1119,1365,-6412,770,4285,1112,490,-1689
9681,92,1853,-1857,3622,-2306,-10249,-566,-1328
9681,-1136,1638,-1546,3353,-2308,-9234,-566,-1270
9681,286,3252,-160,4955,-2213,-15047,-1098,-910
9729,-1456,1396,2699,2844,870,-8711,-94,-1763
9729,-1373,1798,3320,2858,370,-9785,-296,-1629
9729,-468,-59,-1659,-434,-452,3183,1080,-2193
9729,-846,-118,-4461,216,-3413,917,903,-2062
9729,-630,2709,-3820,3985,-6389,-13228,-209,-1470
9729,-859,-1936,-4346,-988,1888,8758,1164,-1755
9729,788,-1939,-3710,-399,1593,6026,927,-1838
9729,549,-2031,-1555,-813,-605,3596,768,-2248
9729,-99,-1441,-2477,-679,-1197,3023,881,-2967
9729,-601,2533,-3272,3270,-2272,-10391,-458,-635
9778,-1359,2241,-1209,3788,2107,-9395,-149,-603
9778,-1129,-795,-2488,347,3202,2959,767,-1070
9778,767,-1844,3032,98,2770,4189,910,-2270
9778,879,-1396,1237,-211,2301,4187,946,-2015
9778,2699,-438,-2216,1,1345,2525,883,-1850
9778,116,-574,-9265,563,-3587,1187,464,-1292
9778,-687,452,-9482,765,-4809,-1096,441,-1236
9778,-890,-2628,-1678,89,4202,6923,1028,-1400
9778,430,-1960,-2233,364,2915,4942,805,-1249
9778,543,-1723,708,1794,8645,1181,685,-1330
9827,844,4478,-7772,4964,-6338,-19637,-891,-880
9827,333,2754,-6309,3727,-5413,-14115,-555,-864
9827,-1038,2481,-4254,3393,-4625,-12419,-453,-889
9827,-1041,-72,-3614,2108,-1635,-1428,-103,-802
9827,-574,-3857,-5099,-1619,959,13575,1087,-1321
9827,-491,-1091,-2765,-111,2463,5715,1032,-1729
9827,-373,-966,-2127,33,2579,5067,966,-1623
9827,-323,261,2778,2431,3873,-2686,317,-1443
9827,-228,4339,4390,5797,768,-17060,-702,-939
9827,209,4599,4392,5494,0,-16446,-823,-907
9876,1506,2458,-3857,3494,-2341,-7522,-348,-1026
9876,1378,-1215,-3042,813,439,4299,570,-1104
9876,1565,2750,1153,5104,279,-12197,-679,-433
9876,1236,-3087,5264,31,3390,5739,898,-1978
9876,698,-2941,6846,349,3145,4399,658,-1502
9876,2019,212,-4584,1330,-84,1970,-35,-2329
9876,-39,-3158,-6616,-2256,562,15226,1093,-2513
9876,-700,206,-4726,-461,1588,5509,943,-733
9876,-1887,344,-3177,-171,2594,4391,845,-868
9876,-298,2708,-3745,2944,2902,-6678,-86,-1179
9924,-851,3669,-1609,4052,-5514,-12178,-983,-915
9924,359,3037,-1677,3455,-6246,-9972,-750,-1052
9924,-649,-2077,861,-332,2812,5864,915,-1319
9924,-658,-1387,1267,191,3455,3336,661,-1096
9924,1154,463,-5235,-130,-654,3835,902,-1464
9924,1042,489,-4394,299,-519,3132,836,-1344
9924,756,1169,-3492,1237,-875,33,589,-1182
9924,431,-1770,-12239,-1887,-5298,10815,1057,-1280
9924,493,-960,-10652,-1019,-4776,7551,813,-1156
9924,-1195,-1360,-5212,444,-2764,2327,609,-1225
9973,544,529,-3230,1774,4304,-1951,80,-908
9973,-805,-567,-4872,297,2295,3137,589,-1049
9973,-848,2715,-3051,3926,-1122,-10635,-474,-780
9973,334,2836,-935,3858,-230,-10617,-497,-712
9973,-866,-514,-3932,-200,1804,5422,1092,-1714
9973,-288,-124,-4972,0,1711,4392,1089,-2062
9973,1285,789,-5122,789,1245,980,911,-3001
9973,1292,-26,1831,685,5696,2682,1120,-3151
9973,-977,110,3351,818,6574,1690,748,-2059
9973,-145,-344,-4767,30,754,5186,710,-315
10022,141,2350,734,3837,1475,-9889,-505,-102
10022,-1427,-934,-990,617,2318,2640,364,-417
10022,1559,526,-1933,782,2333,887,451,-766
10022,1628,754,-1916,980,1997,250,274,-714
10022,-748,2640,2010,4600,-527,-13037,-920,292
10022,-439,2219,1720,3903,89,-11231,-826,265
10022,-332,2399,1068,3726,460,-10921,-741,150
10022,-979,-548,-1369,-18,3056,3765,966,-941
10022,403,-412,-409,131,2803,3060,907,-874
10022,482,236,-2748,153,3447,2532,659,-808
10071,-1280,4112,2434,5748,1982,-18400,-1170,335
10071,404,3052,1867,4387,494,-12551,-820,245
10071,621,-2227,-4122,-942,1907,10678,1278,-852
10071,-345,-1609,-3864,-765,1423,8880,1172,-899
10071,1008,-637,-3055,171,919,4790,867,-726
10071,237,303,-377,476,906,3109,694,-783
10071,-959,604,-8,784,723,1877,648,-678
10071,-1637,2963,-7491,3736,-3391,-9939,-685,75
10071,-1109,2638,-6259,3109,-2109,-8491,-610,162
10071,-338,91,-3252,145,-337,4047,648,92
10119,-697,994,-903,2037,1864,-2059,55,-1102
10119,743,4142,900,5058,-70,-14302,-888,-1485
10119,-306,152,-2433,-460,389,5175,808,-1169
10119,1130,562,-2057,8,164,3311,650,-1006
10119,631,-2275,-2607,-518,1264,8403,1001,-1643
10119,-722,-1850,-1963,-313,1476,7165,865,-1790
10119,-783,-1239,-1383,61,66,5035,681,-1863
10119,-793,288,-3461,33,495,2501,573,-283
10119,-705,102,-2324,-82,894,2304,591,357
10119,266,3106,911,4049,2718,-11121,-676,229
10168,1549,1780,723,3538,-1484,-7800,-417,-566
10168,100,771,53,2204,-2412,-3608,-192,-800
10168,-748,-550,2196,426,2954,2503,549,-733
10168,862,-271,4124,889,3217,833,284,-701
10168,797,934,-1109,-30,375,2484,547,-600
10168,1077,1575,-1245,395,2970,1394,385,-581
10168,-294,4070,372,3936,3078,-10256,-545,-158
10168,-1046,-1362,-4543,137,1675,7121,529,-345
10168,365,-843,-3903,235,2374,6008,577,-392
10168,355,-977,-1940,417,1024,2586,492,-621
10217,519,5009,1014,6276,-2107,-20323,-1394,148
10217,-480,4209,628,5181,-2239,-16517,-1205,61
10217,631,5560,167,6419,-4261,-20091,-1621,663
10217,-640,2224,-1584,2931,-3274,-7321,-814,319
10217,323,-1227,-4057,-866,-2233,7283,264,-206
10217,-864,-1967,3012,112,10185,5914,840,-783
10217,621,-1378,1715,0,7536,5008,822,-790
10217,376,-402,-2198,-366,308,3222,747,-1005
10217,-1074,2861,-742,3329,-1366,-10593,-331,-428
10217,-1541,-2136,-1998,-493,2423,5638,792,-934
10266,-213,464,-996,256,-3836,-812,38,-1709
10266,1461,-839,-5253,-1655,-2916,5938,638,-1600
10266,-1279,-1170,-2228,-272,1341,3757,425,27
10266,197,-986,-2892,-142,1215,3317,423,222
10266,26,-547,-3013,178,1330,1657,263,595
10266,313,-2637,-3665,-2337,-1892,11181,712,-391
10266,-1339,-2896,-3893,-2449,-531,12147,1060,-508
10266,-969,-1483,-2362,-798,615,2084,437,-408
10266,-83,-1528,-2229,-606,518,1123,447,-499
10266,1389,3262,-6600,100,-4988,-1219,426,-947
10314,-89,2149,714,3638,-2994,-13546,-884,-37
10314,-1821,1247,1037,2810,-2039,-9952,-672,-96
10314,132,-1317,-2182,-509,2408,4333,726,-811
10314,-1060,-1111,-1861,-481,2570,3532,672,-800
10314,-813,603,-3314,-1327,-2713,2267,433,-590
10314,-598,935,-7658,-1810,-6072,2323,525,-618
10314,-203,1035,-8541,-1126,-5188,666,324,-433
10314,-897,-1767,-3829,-1956,5121,11699,1481,-1020
10314,-469,-807,-3370,-1179,4780,8606,1260,-986
10314,1170,451,-1006,337,-107,731,337,-436
10363,-715,2169,1947,2736,1896,-9074,-533,-116
10363,917,494,563,1226,1963,-1965,66,-208
10363,1140,1928,5680,3744,-693,-11567,-906,118
10363,623,1816,5778,3315,-1011,-10713,-844,116
10363,-886,2040,6224,3734,-157,-11734,-934,210
10363,691,2,-1256,-511,1568,3641,679,-306
10363,-405,238,-1378,-156,1151,2471,615,-320
10363,1538,-65,-2513,446,118,2102,393,-908
10363,1104,-322,-2904,319,-1392,1685,327,-568
10363,849,4295,3736,5505,529,-15815,-1343,570
10412,527,1112,-1139,3462,-158,-8624,-584,328
10412,773,-1666,-4466,-255,-1177,4551,376,-182
10412,719,102,-1728,-583,3230,4239,825,-826
10412,-660,220,-878,-281,3288,3142,709,-826
10412,792,886,-498,697,2178,-143,394,-675
10412,-1469,1691,862,3545,-60,-9164,-607,648
10412,119,1466,1093,3447,506,-9073,-383,-4
10412,-778,-2156,-2208,-482,1032,6221,829,-627
10412,401,-1995,-2692,-566,244,5683,840,-541
10412,215,-1092,-446,184,624,2553,464,-303
10461,-1951,4382,-1155,5482,-5589,-19770,-1625,852
10461,-1635,2531,-2276,4323,-4820,-13952,-1351,865
10461,29,-1464,-2844,-1856,7883,11125,1716,-1915
10461,-76,-1253,-3272,-1438,8270,9731,1451,-1391
10461,1702,-425,-3619,-742,7036,7037,1340,-1354
10461,-1311,-674,-804,-223,1238,4159,822,-518
10461,456,-501,-666,-155,1212,3348,687,-664
10461,-607,2357,972,3026,-295,-8134,-478,353
10461,748,2695,1259,3494,-595,-9630,-608,495
10461,-447,-1354,-756,-305,2929,4607,474,-752
10509,-216,3304,1172,2961,1469,-8148,-194,51
10509,-1247,3237,1049,2418,-575,-7343,-371,520
10509,346,-993,-2409,-249,2251,4540,686,-55
10509,-832,-106,-3277,-321,-473,3631,670,-60
10509,397,1331,-4536,477,-1922,-564,335,-55
10509,772,-2291,-633,-1354,2366,10453,1170,-717
10509,-673,-1940,-580,-1048,2159,8826,1029,-692
10509,186,-1097,-444,-209,1524,3247,357,-607
10509,-979,-551,-213,114,1243,1704,390,-654
10509,168,1217,1788,3536,-2381,-10387,-836,67
10558,1291,3674,-2766,2786,-1555,-8765,-264,-954
10558,1315,755,-5218,-800,136,3707,628,-1505
10558,-844,250,-3574,-968,1878,3934,841,-884
10558,-647,342,-3201,-747,1647,3626,807,-861
10558,697,705,-2120,-97,1422,1648,630,-773
10558,-1264,-620,-477,118,1049,968,279,-308
10558,-806,293,439,953,1368,-2329,123,-120
10558,-1798,-1981,-1699,-930,1369,6964,838,-190
10558,-1557,-1579,-1638,-457,1158,5248,723,-309
10558,-1905,-1130,1576,262,2020,1957,234,1685
10607,636,4798,3425,5183,-635,-17472,-991,-46
10607,343,5167,3657,5271,-1229,-18631,-1296,2
10607,421,-3715,-3497,-2809,726,15109,1133,-423
10607,-1109,-3380,-1952,-2009,2329,11590,1025,-472
10607,-72,-2307,-841,-784,1983,6310,662,-246
10607,-8,-1404,-3780,-853,-3082,3204,581,-830
10607,-1505,-1137,-3222,-638,-2451,2052,566,-636
10607,-511,-1372,5225,578,6740,725,639,-1199
10607,569,167,7145,2140,4653,-5250,255,-915
10607,-630,-540,-2878,-915,1321,4698,676,275
10656,-888,2996,1074,2908,-1106,-9196,-395,-711
10656,-983,-280,-314,-81,1018,3365,497,-625
10656,463,453,329,1118,1485,-285,374,82
10656,-702,-239,-1157,92,1572,2100,408,-2030
10656,-395,689,-394,766,1779,-695,203,-2010
10656,-65,-327,1170,1087,453,471,-487,612
10656,-1387,-3136,-803,-1403,1934,11435,462,34
10656,748,-651,-1377,-174,1135,2318,509,-887
10656,-612,-494,-1349,-204,705,2091,509,-804
10656,-734,276,-976,638,82,-933,66,-624
10704,-473,2447,4362,4636,-25,-15187,-1396,966
10704,-1858,1077,3491,3641,-1915,-12072,-1164,928
10704,195,-1966,-773,-172,1797,3627,633,-55
10704,-1442,-1918,-935,-177,1486,3209,593,-99
10704,-1487,-1344,-763,116,1089,1652,539,-59
10704,829,-767,725,53,5906,1757,439,-123
10704,509,-680,1538,184,5430,1354,495,-192
10704,-895,-1561,-1736,-1143,1157,8299,741,426
10704,-394,-735,-1603,-356,1084,5153,568,391
10704,-1273,-226,1378,-28,1065,1100,726,-415
10753,366,397,-2042,836,-381,-2419,137,170
10753,-1153,-611,-2100,26,-34,1092,441,-12
10753,-933,2936,92,3892,-1911,-13825,-652,305
10753,-831,3381,-32,3166,-1188,-11344,-643,561
10753,-840,3199,188,3067,-1882,-10742,-575,675
10753,-612,-441,-5502,-412,1585,4262,629,-415
10753,751,-651,-2945,-271,4083,3708,661,-389
10753,-947,37,-578,-438,815,2412,878,353
10753,-598,-2,-258,-79,9,1356,732,581
10753,746,635,35,656,-1496,-1604,426,670
10802,-153,2891,-450,2224,-1670,-7627,166,-229
10802,-250,68,-2539,-752,121,3861,1116,-2114
10802,-399,1490,-2324,1067,-136,-2457,396,-1305
10802,-990,-1486,308,20,1172,1809,293,124
10802,310,-1015,-404,384,-472,936,257,93
10802,-534,2317,1505,2794,-2183,-10624,-708,917
10802,712,1758,1251,2323,-3877,-9081,-570,828
10802,343,-1440,695,-1053,1985,4891,1001,-316
10802,-868,-1179,97,-727,1751,3834,811,-209
10802,-951,-344,-178,46,1385,785,553,-106
10851,82,5072,2448,4856,-846,-18971,-821,-928
10851,763,3692,2240,3774,-667,-15301,-818,-337
10851,-528,1903,1796,2521,-162,-10265,-599,-65
10851,885,-3196,1168,-2110,3066,11571,1846,-407
10851,-659,-2281,527,-1368,2269,8488,1503,303
10851,1266,-293,-6709,-1201,-1068,4486,682,99
10851,1067,390,-7113,-774,-875,3873,612,133
10851,-148,999,4399,3128,1129,-8884,-818,692
10851,175,2541,4033,4240,-152,-13078,-1221,676
10851,-123,-2116,-939,-699,838,5310,660,317
10900,-1215,3094,3502,4260,1317,-12931,-724,1122
10900,-113,875,2912,1731,3074,-4057,-127,792
10900,253,323,-2004,1206,-942,-1992,222,600
10900,49,3776,176,4370,-3055,-15058,-893,1005
10900,-1528,3388,270,3695,-3380,-13361,-897,998
10900,253,-2138,-2031,-2078,139,9454,1100,-445
10900,-743,-1438,-1895,-1691,-129,7334,889,-561
10900,101,-1648,-1319,-1632,1406,5792,991,-1156
10900,-319,-1602,-873,-1328,1740,4945,754,-370
10900,-721,2032,1686,2833,-1286,-8024,-209,873
10949,12,1759,-3448,577,-1141,-1640,283,111
10949,1133,-1371,-4001,-2658,1463,10655,1184,-124
10949,342,-2241,3216,-743,2818,4601,545,1053
10949,-1017,-1936,2890,-177,2784,3283,362,1362
10949,192,-1117,2735,818,2126,154,-7,1551
10949,141,4717,2136,3494,621,-15010,-766,1338
10949,-1744,3572,1932,2826,573,-11239,-771,1368
10949,-564,-1912,-3275,-2073,1828,9833,1312,287
10949,864,-1646,-3026,-1725,1477,8459,1184,71
10949,715,-1705,1858,-1377,2505,6255,1116,-443
10998,416,4100,117,4421,1612,-14657,-1048,1146
10998,153,2346,-730,2698,1904,-8572,-603,860
10998,489,-3960,-302,-2614,1453,13397,1257,1
10998,366,-5378,-590,-3902,2781,18937,1792,-289
10998,-1280,-3638,239,-2214,2623,13039,1391,-172
10998,-720,-846,-2875,-1413,249,4809,631,238
10998,475,-417,-3651,-911,732,3336,479,77
10998,-144,2868,1371,3212,-2,-12175,-371,547
10998,52,4140,1722,3993,-832,-15248,-586,-423
10998,-1480,-1742,-274,-1960,2529,5406,715,-2046
11046,-36,2446,2158,3107,-195,-11336,-948,652
11046,-1326,108,504,167,641,-1094,-266,223
11046,508,-1713,-1551,11,2178,4379,328,-472
11046,-687,-1454,-1193,274,3373,3365,218,-719
11046,490,-607,-318,1096,3647,36,-30,-813
11046,-1235,818,-761,965,-1623,-2766,-271,1453
11046,-455,-3055,-3307,-2805,785,12382,893,1044
11046,727,-1493,314,-1461,1813,4616,186,475
11046,442,-1477,1112,-1019,3596,3760,112,475
11046,630,803,-846,54,1378,81,371,242
11093,-1406,5175,784,3958,-2540,-15448,-1158,1411
11093,-1141,4912,562,3463,-2328,-13894,-1151,1249
11093,213,-3047,1594,-2405,652,7958,539,-103
11093,-1482,-2817,1161,-2072,232,6242,374,-176
11093,-1410,-211,-3325,-1169,-812,3998,121,-39
11093,-1111,-20,-3509,-1080,200,3458,111,-63
11093,594,353,-2606,-219,1581,671,-39,-14
11093,-1169,-2950,2697,-2335,4984,10164,446,-273
11093,-931,-2721,1929,-2395,3906,9935,623,-291
11093,-407,-1896,4034,-356,4026,2209,-32,435
11142,-1502,3336,5520,3851,-304,-14395,-1432,1407
11142,-1053,509,3448,397,911,-1318,-438,-57
11142,1102,2081,1687,2385,-1064,-10279,-928,-1763
11142,-87,2296,1493,2530,-1478,-10813,-826,-1947
11142,997,-1617,-2144,-1894,1922,7796,769,238
11142,951,-1137,-1364,-1331,2622,6712,698,966
11142,-297,23,-1061,-386,1872,3315,433,1099
11142,341,-944,-889,-1189,709,2260,-492,4812
11142,311,-930,-354,-583,691,575,-516,4827
11142,260,-2575,-2584,-3144,687,10837,1480,-821
11191,714,1361,-997,1185,-1368,-4466,160,-1122
11191,1296,-1503,-2162,-1246,233,5902,663,-1410
11191,-555,-987,-1066,-543,1707,2686,-1041,2325
11191,-1925,-1039,-1310,-481,1211,2517,-982,2440
11191,10,2827,-3584,2061,-2143,-11939,-760,33
11191,-1696,2804,-2472,2285,-1937,-12001,-1257,479
11191,-1625,3321,-953,2893,-2032,-12926,-1523,804
11191,-1603,-2434,781,-322,1004,4064,1405,-398
11191,-212,-2003,1493,178,2227,2072,730,-260
11191,428,-1019,-1375,-1044,-634,4117,1546,-1485
11239,796,2016,1635,2170,1282,-8752,254,-186
11239,799,4844,2798,4631,-874,-18687,-623,-83
11239,-287,-4934,-944,-2997,1891,15178,1537,480
11239,-370,-4277,-1120,-2355,1604,12204,1218,608
11239,457,-1077,-1548,2147,1180,3318,806,-131
11239,61,-1308,-915,1605,1768,3403,882,-298
11239,-1082,-1054,30,1190,2326,2391,977,-502
11239,-407,2611,1719,3302,-962,-13742,-1977,2165
11239,-1244,2179,754,3119,-2188,-12996,-866,-462
11239,-74,-562,-1315,-1763,3248,6319,2859,-269
11288,-1507,-193,1465,-413,-439,3528,801,1275
11288,-697,-311,888,-1078,7,5051,950,1429
11288,-2267,-887,-593,-1701,1581,3777,-787,3693
11288,-3266,-733,-532,-1165,1412,3198,-176,3261
11288,218,-2535,-3766,-1868,2490,11760,1584,1781
11288,-839,-1863,-3368,-1307,2107,9566,1570,1195
11288,587,-1223,-2311,-657,2040,6569,1559,-195
11288,-785,94,314,-471,1562,1236,588,-916
11288,-571,664,600,125,1116,-454,397,-585
11288,-1130,3116,4781,4274,555,-12358,-397,1018
11336,-147,2864,-941,1910,-1861,-10807,-479,921
11336,-1451,2707,-2735,1045,-3497,-8952,-386,835
11336,2451,651,2232,-340,1911,3467,533,-216
11336,694,-379,792,-154,1176,3001,1493,-1697
11336,-1861,-1849,-238,544,1615,2069,653,958
11336,-1544,-1244,-279,664,1551,1856,228,613
11336,308,-457,4,1203,1162,-473,-308,316
11336,627,-1940,-2640,-2870,781,16035,704,3877
11336,-525,-955,-2204,-2656,775,12250,4,4429
11336,-898,-1590,986,-77,2885,785,547,1986
11385,-238,951,1399,1612,564,-3959,204,1607
11385,-1248,-860,494,-2227,2208,4209,803,763
11385,1220,7567,3854,7768,-3333,-27381,-1046,724
11385,1018,6079,3095,6327,-4561,-21994,-621,1066
11385,236,-1638,-730,-687,1317,6310,-3073,2039
11385,284,-1383,-674,-961,1257,5843,-2539,3046
11385,138,-580,-262,-656,1001,3216,-1815,3484
11385,646,509,-711,-2126,332,4167,1862,656
11385,351,708,-199,-1043,938,2711,1302,614
11385,607,-152,587,-2886,-657,6550,1418,-1113
11434,-798,3340,-48,1250,-1220,-9137,-96,1085
11434,-549,-204,-1596,-2155,-1207,5068,875,515
11434,-2543,-1476,-726,-1874,1494,4177,-1140,1421
11434,-618,-749,-38,-1159,1316,2376,-1462,1959
11434,764,7106,4906,6403,-2479,-27056,-1311,1745
11434,508,4816,3695,4350,-1764,-18187,-833,1423
11434,-917,3656,3140,3680,-1286,-14469,-633,1199
11434,-42,-1466,-467,-1816,1938,8520,1194,282
11434,-1330,-1396,-227,-2018,1809,7398,968,-140
11434,-313,-774,-217,-2415,1812,5422,-824,2486
11482,790,4822,3086,3537,-1183,-15395,-599,849
11482,691,3827,2698,2705,-1129,-11441,392,-937
11482,-1449,-1669,-932,-2944,1981,10469,2286,-473
11482,-849,-991,-930,-3114,1523,8879,2629,-501
11482,-413,-780,-514,-5082,867,7849,3555,-4197
11482,-2126,-852,-455,-4496,1211,8657,2843,-3281
11482,-3273,-607,-136,-2776,990,6315,1444,-1488
11482,1465,4386,1607,4725,-1252,-10671,-2082,-440
11482,-1714,-711,49,-2179,1750,3782,-2383,872
11482,-579,-704,-4,-1939,1640,3954,-2611,4189
11531,-116,671,315,-578,63,1488,1266,2873
11531,1960,4881,1765,1492,-686,-10034,86,-2841
11531,2012,5073,2127,2286,-1326,-12797,-666,-3010
11531,818,3684,1869,1949,-1071,-10216,-938,-2425
11531,-376,-1672,-595,-3544,2310,11070,1151,2212
11531,-1606,-1431,-104,-3225,3062,9576,1015,2062
11531,-1680,-876,2848,-899,4118,5811,103,2362
11531,-1896,-505,2758,-221,3914,3990,-69,2324
11531,7,3808,1046,834,-3481,-8328,-705,2613
11531,-540,2668,1085,427,-1593,-6347,-731,2698
11580,-54,1752,-480,85,-533,-679,-566,3355
11580,-427,481,-402,-1587,1573,4361,140,1336
11580,496,435,-830,-1272,1877,5465,274,2427
11580,-452,728,-567,-416,1670,3578,293,2184
11580,-1807,5325,1674,1697,-1319,-10598,-590,2710
11580,-1499,4464,1209,1124,-1210,-7649,-749,3532
11580,-1497,-71,-964,173,2208,6893,-117,4341
11580,-2133,492,-754,250,1946,4520,-653,3574
11580,-537,1386,-353,733,1381,873,-1347,3850
11580,-341,608,-590,-3140,1495,7871,400,4034
11629,704,7156,2307,2950,-1725,-14695,-1469,-3267
11629,-885,6398,2030,2436,-1754,-12742,-1864,-81
11629,3534,-2005,-1554,-2565,1946,15361,-1026,-1623
11629,2093,-1272,-1337,-3195,1739,11765,-1163,-5032
11629,-2217,-317,279,-891,2080,8457,2309,7515
11629,-1746,122,417,-330,1929,5906,2995,5969
11629,-1779,4735,2805,758,-1824,-10536,2,2374
11629,-709,4022,2562,328,-1495,-8298,-49,2715
11629,-2021,4081,2511,792,-1496,-9033,-156,2705
11629,-227,-225,320,-3423,1230,8502,1243,1258
11678,-1695,2004,1621,-1348,-444,446,654,1422
11678,-1706,-194,394,-3427,651,8882,1251,1163
11678,-1227,659,683,-3364,555,7109,1174,1510
11678,118,745,605,-3085,288,6445,1037,1405
11678,-329,-2595,987,-3008,813,12694,1404,1939
11678,-522,-1808,1260,-1889,554,9316,1182,1930
11678,-25,-38,1653,-3307,336,6619,1519,3658
11678,1641,186,1513,-3115,205,5760,1393,5026
11678,244,949,1812,-2399,-212,2525,765,5479
11678,4441,5123,3492,-1401,-2211,-7733,-83,5645
11725,-2015,4201,4234,483,-2190,-9100,221,-3689
11725,-2256,-948,1921,-2278,1003,7014,-235,1869
11725,-2265,-593,1704,-2449,754,6014,-165,2931
11725,-1900,316,1707,-2264,70,3710,-9,4294
11725,-2613,-729,1800,-2391,-83,4324,271,4719
11725,-3712,-578,1693,-1994,-249,3965,662,5509
11725,-3749,-1480,2542,-1688,-1262,7023,15,999
11725,-5644,-3978,1301,-3650,649,14918,-2516,-4283
11725,-1125,-509,2045,-1999,-279,-8559,704,1212
11725,-239,-177,1746,-3058,-896,-6240,1518,401
11773,-1714,3930,4105,1492,-2897,-6230,575,4515
11773,-916,2972,4329,174,-3239,-6028,-609,2694
11773,-2278,2707,4160,-276,-3276,-6089,-552,2503
11773,-2579,2880,4209,-93,-3260,-8432,-737,2580
11773,2082,-1517,1776,-3279,-406,10231,442,2248
11773,473,-1251,1944,-2651,-442,8728,481,2448
11773,-2887,-912,3204,-1583,-484,6345,-171,-962
11773,-863,-464,3244,-1171,-607,4188,-307,616
11773,1112,-1834,2976,-1389,76,9377,591,967
11773,874,-1451,3070,-651,3,7917,667,785
11831,678,3019,5751,3141,-1871,-11288,-655,1642
11831,804,-580,3752,-2757,-271,6504,429,10483
11831,-524,-523,3743,-2341,-173,5462,-14,10982
11831,-7814,2114,6795,1572,-2169,-8022,-1124,1087
11831,-6482,1523,6519,1247,-1818,-6295,-1189,3299
11831,-3267,1741,6345,1204,-1947,-6973,-1042,3196
11831,-1042,-2103,3714,-1703,597,10661,916,882
11831,1975,-1643,3641,-1818,438,9631,661,-93
11831,-2010,-1294,4376,-3028,32,13591,-246,-1822
11831,-828,-1006,4321,-2852,-22,9722,-364,794
11880,5503,700,5157,-2097,-1248,2630,-773,3885
11880,6737,-693,3410,-4839,-714,10562,1505,2171
11880,5167,1779,4462,-2521,-1673,-340,1134,4619
11880,-5632,-1787,5132,-2423,207,6470,-296,728
11880,-3608,-1117,4780,-2285,-392,4870,-1447,-2847
11880,889,1904,8103,1151,-2226,-8970,-1073,3319
11880,1461,1703,7622,990,-2062,-7896,-1194,3792
11880,727,2325,7504,1634,-2409,-10174,-1356,3666
11880,1418,-1868,4742,-4868,-698,11325,1371,-2155
11880,602,-1495,4790,-4726,-823,10193,1447,-1907
11929,-613,4063,9554,2072,-3981,-14857,-1064,548
11929,262,3111,8671,1522,-3892,-11399,-1042,887
11929,-1071,1927,8005,1056,-3301,-7714,-806,850
11929,-1077,-4598,5836,-5972,-146,15600,830,483
11929,-1526,-3897,5689,-5004,-289,12248,952,-308
11929,730,-1659,6441,-8203,-1217,14854,-460,-2244
11929,2015,-1358,5983,-7625,-1453,12626,1250,-313
11929,1778,-895,5828,-6198,-1736,8759,2216,828
11929,1857,1901,9401,1318,-3109,-5415,-4990,-1250
11929,2485,2010,8581,336,-3296,-4958,-2716,-1826
11978,-2845,-1035,9252,-516,-1757,3092,2409,60
11978,-3693,-2564,7991,-1602,-754,8642,5107,2936
11978,-4199,743,9158,1857,-1964,-3757,5208,4192
11978,-1307,-1503,7485,-2349,-1288,11077,4157,-1327
11978,-2238,-1416,7204,-2237,-1230,10629,5076,-10872
11978,-2078,-3956,8441,-2522,32,-712,-4182,-359
11978,-1305,-3479,8185,-1668,133,-2397,-1682,-174
11978,-521,-2422,7791,-1075,178,2571,3573,-488
11978,-2936,-1837,9358,-2493,43,9459,-759,745
11978,-2102,-1641,9121,-1943,-28,8223,12,1332
12025,850,2799,12564,2272,-3532,-8627,-767,1924
12025,712,2212,11619,1865,-3101,-6217,-548,78
12025,1623,2513,11441,2391,-3162,-8253,-847,284
12025,3164,-1547,9780,-3231,-87,11313,-798,-1677
12025,4747,-1126,9390,-4077,-271,12536,1795,-244
12025,2420,-749,10083,-3750,-1673,5288,-6175,2519
12025,-1052,-888,10287,-1893,-1110,2688,-6680,8100
12025,1049,-683,14110,446,-1815,4757,3804,3710
12025,1666,-3033,11509,-2184,-622,13492,2907,3425
12025,-1300,-1987,11964,-2350,49,14503,11155,-200
12074,-2577,2549,14302,2317,-2167,-10793,-523,11805
12074,-4243,-2203,11285,-4264,-282,5363,-1780,8669
12074,-5001,172,14997,-230,-1768,-795,-220,10342
12074,-2433,2857,15638,3933,-2621,-11490,-1264,3641
12074,-89,5508,15912,6222,-4074,-19319,-3521,-5707
12074,-2799,-3162,12085,-1212,1317,2637,-1150,-4332
12074,722,-2621,11402,-1582,630,4057,-1495,-2163
12074,4456,-1997,12894,-3260,147,13389,-1985,-318
12074,3530,-1302,12322,-2175,-265,8763,-4077,-560
12074,-4435,-3147,14221,-1445,2188,13777,8527,-7118
12123,415,1282,14942,-2773,-2218,3509,-3439,2998
12123,2164,-1398,12610,-5485,-593,11884,-2977,5377
12123,5023,-1583,14920,-739,220,1370,-4220,-4545
12123,3823,-1688,14609,727,666,221,-1154,-5535
12123,3120,-850,14461,1690,646,-1734,4422,-8220
12123,2329,4352,19471,3351,-2744,-14283,18017,-1956
12123,1956,5739,19159,4137,-3870,-19229,13316,-3341
12123,-3134,-3072,16492,-3744,1534,16419,4147,5371
12123,-1017,-2499,15734,-2832,1105,13505,12418,8453
12123,-34,-2124,16989,-3042,571,13676,567,-1597
12172,-384,4255,19275,3617,-2267,-15718,1348,-5338
12172,6702,4538,17957,1729,-3190,-6582,10564,-14769
12172,-3880,-4752,17640,-3800,1926,18413,-25847,16261
12172,-2267,-4126,16759,-2720,2021,14500,-26458,14486
12172,1793,-3182,15971,-1285,1897,6352,-23384,10631
12172,62,-1719,17229,-7975,224,13978,-12929,4137
12172,1899,-1218,16104,-7805,14,10375,-13249,4877
12172,4318,786,18236,-5935,-2468,7171,-12975,4967
12172,5071,-1782,15602,-8536,-1025,17565,-12182,-2912
12172,17244,1143,17462,-5205,-1306,21037,16898,-10984
12220,-4402,1260,21943,5423,-626,-6485,13679,3144
12220,-5719,-2065,19436,-635,553,9954,12941,8662
12220,8296,-1176,20049,-707,1087,3314,-6684,751
12220,6084,1642,20149,2609,-486,-10858,-7628,7641
12220,7331,4312,20358,5457,-2264,-25386,-7635,6803
12220,1105,-2935,18661,-2643,886,11092,27172,-8790
12220,361,-3009,18319,-1923,1305,6743,19984,-14244
12220,4973,-1448,20803,-4336,932,5359,1971,-2242
12220,1758,-1991,20766,-4430,1225,8712,1173,8555
12220,4920,937,23135,-5404,-3038,20788,-1058,-7590
12268,1475,336,23841,1414,42,-17994,11920,3390
12268,3983,-1643,20645,-2528,220,-4828,12312,5401
