timestamp,ch1,ch2,ch3,ch4,ch5,ch6,ch7,ch8
66,0,0,0,0,0,0,0,0
66,-423887,501479,402976,-939339,45266,1363641,554168,-516986
66,-401298,471306,379898,-882978,42061,1282122,521209,-486241
66,-377482,443428,358198,-831446,39608,1206069,490387,-457364
66,-352526,416910,334932,-782431,40928,1140016,461853,-430482
66,-331506,392887,315192,-736127,37499,1070942,434489,-405115
66,-313023,371056,296534,-692535,32902,1003827,408631,-381156
66,-295300,348202,278409,-652437,30382,945717,384548,-358155
66,-276635,328101,262205,-613383,27853,887571,361564,-337012
66,-260194,307694,246804,-576943,27128,836950,340161,-316817
114,-245263,294515,235957,-539668,16829,765957,318200,-297348
114,-232222,276058,221790,-508274,17905,724448,299604,-279856
114,-218771,255518,204548,-481869,25974,703026,283858,-263814
114,-205357,240705,192571,-453203,24487,660702,267052,-248179
114,-193467,225886,181005,-426036,20365,619252,250993,-233183
114,-181400,213283,170237,-400789,17960,581013,236140,-219474
114,-169400,197823,160275,-379135,20496,557116,222722,-206635
114,-161210,186591,151335,-356291,18618,521618,209376,-194242
114,-151854,176831,143043,-334499,15487,485805,196727,-182674
114,-140533,168475,133974,-314483,14987,455459,185003,-171946
162,-132830,162293,128814,-292621,6043,409003,172678,-161069
162,-124842,151195,120302,-276435,7626,390338,162711,-151729
162,-116153,147622,118151,-258550,3351,357160,152614,-142694
162,-110758,138090,110053,-244123,4472,340323,143859,-134337
162,-106001,120983,96633,-232654,13728,342515,136915,-126451
162,-98252,114335,91086,-218193,12422,320180,128477,-118858
162,-91771,108210,85898,-206030,10409,300220,121210,-111782
162,-86763,101964,80667,-194168,9173,281816,113859,-104977
162,-83158,96567,76582,-182198,7284,261414,106589,-98463
162,-76865,88902,70995,-173495,10630,258100,100953,-92542
210,-73539,88148,69483,-157907,2123,219694,93821,-86709
210,-67661,82354,65067,-149359,2926,209569,88254,-81658
210,-63444,75264,59033,-143785,8313,210792,84400,-77155
210,-59688,71194,55933,-134735,7577,196116,79222,-72600
210,-56459,66912,52704,-126111,4029,182773,74440,-68002
210,-54758,66999,52360,-115210,-3166,153412,68737,-63475
210,-49271,57935,45705,-112591,6218,168685,66336,-60449
210,-48022,55069,43090,-106701,4344,157136,62283,-56841
210,-45037,52556,41105,-100211,2757,144159,58317,-53361
210,-40860,48830,38255,-95090,2837,138763,55068,-50088
259,-38116,52112,40425,-84077,-8544,100890,49436,-46231
259,-36289,47824,37301,-80286,-5995,100641,46777,-43630
259,-33942,36762,29287,-82573,7869,133062,47018,-41930
259,-31675,35620,28417,-76447,5947,120022,43987,-39336
259,-32659,34489,27819,-68754,2961,103206,40475,-36321
259,-30684,33094,26459,-64242,2787,95938,38031,-34129
259,-27578,37196,28507,-58958,-7903,68017,34785,-31491
259,-26084,34302,27160,-55769,-7928,64887,32531,-29526
259,-23000,31845,25921,-52052,-8274,60710,30423,-27552
259,-21507,24917,19994,-52362,2386,80960,30360,-26344
308,-20760,28539,21622,-45413,-7193,52716,26983,-24022
308,-20693,23820,18264,-45825,-1391,64493,26328,-23018
308,-19289,20496,16317,-43837,1113,68217,25224,-21336
308,-17089,19311,15351,-40815,1143,63780,23719,-20116
308,-17524,16463,11666,-40816,3775,67476,22786,-18733
308,-16221,16059,12062,-37526,1722,58250,21353,-17577
308,-13698,16527,12562,-36205,-2256,53791,19746,-15920
308,-14269,15724,11664,-33334,-2224,49987,18520,-14948
308,-13380,15630,11258,-30160,-3497,43344,17146,-13963
308,-13270,19042,14789,-26207,-13744,19264,14703,-10990
355,-11525,16748,13922,-26577,-11861,20471,13613,-10745
355,-11045,12832,8482,-23971,-2307,40081,14683,-11340
355,-10901,11418,8308,-22025,-2160,37399,13719,-10562
355,-10300,10196,8600,-20417,-2930,33442,12655,-9811
355,-7794,8537,6845,-20529,-2870,34643,11984,-9105
355,-7821,8509,6856,-19063,-3966,29556,10842,-8218
355,-6382,15607,11813,-15910,-17209,695,8291,-6277
355,-7824,13028,9974,-16333,-12858,9091,8156,-6080
355,-7371,6637,5976,-19460,-2852,32895,10044,-6375
355,-6722,6422,5566,-18633,-3079,30755,9553,-6026
404,-4316,7410,5871,-16635,-5638,24634,8173,-5184
404,-3752,10000,8183,-16136,-11004,10843,6476,-3542
404,-3395,9622,7560,-15474,-10375,11368,5852,-3361
404,-3261,9310,6988,-14790,-9985,9918,5414,-3157
404,-5121,3384,3245,-15710,-2961,30904,7949,-3229
404,-4693,3906,3753,-13471,-3596,24419,7074,-2849
404,-3450,3500,3842,-12958,-4381,22761,5083,-814
404,-4621,3418,3798,-12000,-4030,20764,4960,-1349
404,-3434,2009,3380,-9911,-1947,26306,5047,606
404,-2137,2219,3246,-9775,-2003,24824,5255,718
453,-3059,6040,5846,-6408,-8903,1136,3584,199
453,-1392,2255,3096,-8497,-3014,16774,3047,1876
453,-1042,2191,5056,-15396,-4414,19703,4786,-1329
453,-981,2499,4906,-14439,-4789,16153,3331,-1043
453,-519,5193,7018,-7935,-11077,620,4262,-1611
453,-675,5003,6010,-7627,-10178,1663,4003,-1468
453,-1508,323,4668,-9037,-2213,19178,5371,1175
453,-1894,610,4394,-8715,-3343,16967,4512,1497
453,-3783,1481,4580,-8380,-5446,12521,3612,1627
453,-3566,970,4620,-9972,-4813,14941,3486,1599
502,-1460,7279,8506,-7365,-16053,-11552,2557,4272
502,-2551,6375,7714,-7508,-14432,-7822,2173,5451
502,-1075,-1064,4425,-10218,-1833,21349,4637,4087
502,-1386,-299,4952,-9144,-3410,17418,4731,4568
502,-2669,166,6521,-10323,-3270,15055,931,8198
502,-3851,163,6533,-9380,-3583,12875,1299,7902
502,-279,4039,10443,-5723,-10129,529,691,61
502,-328,3454,9721,-5387,-8991,1562,926,-375
502,15,4210,9631,-4605,-10344,-3436,1034,-608
502,-2768,-820,8034,-13901,-2774,15893,3292,2034
551,-2239,1229,8951,-9970,-6701,3692,-744,5563
551,-1432,-1471,7095,-10484,-2967,12994,-162,5932
551,-2222,455,11253,-12735,-6076,5837,1683,5228
551,-3519,4526,13537,-8523,-13172,-12597,649,5068
551,-2451,-1927,10706,-17509,-2273,19647,5261,4625
551,-2182,-1607,10307,-14783,-2277,17941,5814,3525
551,-2013,-1519,12922,-11844,-3073,15332,-88,13613
551,-3435,-1488,12310,-11626,-3248,14142,-1424,17460
551,-3323,-1020,11765,-11329,-3763,11755,-2842,19636
551,-76,1325,15688,-12014,-8890,21,589,3160
600,-2191,1128,16491,-13698,-6622,-4377,1319,2978
600,-1807,-2306,12769,-16363,-1128,10574,1765,3829
600,-2728,-3663,16012,-12138,-1112,14176,1529,-5510
600,-747,-3172,15363,-11872,-991,12060,2164,-4262
600,-3212,-640,19364,-15461,-7111,794,3835,5826
600,-1437,2892,20469,-12272,-12842,-14165,2592,4547
600,-3200,-4200,16712,-23351,-1155,22737,7818,-63
600,-4525,-4012,15931,-22069,-1536,20716,7596,-3541
600,-4108,-3572,16116,-20326,-3004,15841,7149,-4804
600,-1146,-4461,19086,-21209,-1575,14605,399,16820
649,-3770,677,23218,-16519,-11836,-10746,4868,-4273
649,-2265,-467,20991,-16963,-9025,-3532,6477,-4641
649,-5346,-9505,18348,-31940,4535,37118,2214,14835
649,-6809,-8463,18026,-30273,2814,39923,2742,13323
649,-5345,-5892,22836,-31872,-1837,16331,2223,8787
649,-4206,-5093,22126,-27706,-1941,12342,-13,11435
649,-891,-1196,26395,-29726,-9590,-300,8017,-512
649,384,359,26386,-26270,-12146,-9136,6162,-887
649,-5741,-5762,26553,-31166,-183,13422,5647,32093
649,-7956,-6394,25665,-32415,-486,13222,5606,27685
698,-6731,-2194,28562,-40561,-8010,1754,1305,2287
698,-4281,-5352,30262,-42760,-1073,15205,11253,-5519
698,-4291,-5306,29046,-41078,-378,14393,10259,-4310
698,-4697,-4848,28518,-39274,-1084,11155,8736,-2528
698,-9258,-8286,28956,-46001,2314,35962,5705,26225
698,-8503,-6747,28341,-42258,1592,31158,8887,18826
698,-6363,-5992,35667,-52959,-1132,17272,9060,-4851
698,-4882,-4964,33693,-50447,-2530,14298,8704,-2245
698,-8491,-1176,41403,-54169,-9964,-1912,16216,-2904
698,-7056,-827,39901,-52553,-9858,-3363,15531,-376
755,-4317,-1762,39027,-44607,-7834,-4369,11815,972
755,-10165,-9201,39895,-58396,-31,17846,13135,24324
755,-11840,-8827,38042,-56228,-168,17093,14138,20148
755,-9778,-8742,42066,-70837,-1534,17100,19407,-6338
755,-8554,-8517,39526,-65954,-2204,17068,18872,-5824
755,-9955,-8759,38545,-58446,-2070,13171,17414,-6963
755,-11362,-5748,46728,-58439,-9554,-1011,13546,11889
755,-12224,-3992,45233,-53462,-10879,-7055,13251,9288
755,-8078,-12594,44532,-64812,1194,32694,16913,16689
755,-8906,-11346,41834,-61173,227,29725,16481,17735
803,478,-6330,50506,-73794,-11608,-913,22454,1808
803,703,-6732,47511,-68028,-8732,-203,18843,2054
803,-3484,-7597,44607,-62247,-5687,824,16448,5952
803,-11357,-15002,45510,-63269,4167,31817,33151,-6130
803,-12458,-14440,43532,-60291,2957,29202,28692,-8393
803,-6099,-13810,46876,-74214,900,29990,25645,5697
803,-6508,-12870,44099,-70640,-149,26824,24691,4557
803,-6922,-11639,42225,-62950,-2353,21649,25038,2916
803,-5803,-18137,46096,-63456,4497,29413,32334,6955
803,-7466,-16498,44087,-59537,3724,27004,32457,4697
852,-40426,-14385,51603,-64246,-5069,16635,40450,-1970
852,-39127,-16223,45565,-62674,-172,29149,39379,-1189
852,-36177,-14137,43576,-57785,-3540,20323,37029,934
852,-46892,-14572,49588,-58419,-6638,12394,37159,1196
852,-41680,-13785,46713,-54759,-6004,12357,35675,486
852,-54016,-20192,47047,-61687,1349,34893,43667,2881
852,-47813,-18845,44411,-58596,413,32573,39338,5469
852,-44723,-16989,42659,-54873,-905,26888,34531,7885
852,-57719,-19947,45328,-57656,659,38296,43404,6258
852,-52502,-18579,43208,-53192,316,31137,41246,5167
901,-60571,-20647,46558,-64078,-1037,38028,39171,50549
901,-57939,-20324,44428,-56609,530,34462,39181,35585
901,-54346,-15135,45638,-46552,-6018,11478,38071,20920
901,-56294,-17831,41447,-65012,-2027,30796,48196,-10929
901,-51352,-17038,39901,-58138,-946,24702,43493,-7551
901,-47582,-14477,44939,-53117,-7617,13647,50020,-13756
901,-45166,-13844,42244,-50834,-7188,13418,44934,-9688
901,-44922,-13398,40293,-48828,-7107,13340,41201,-6069
901,-45808,-20861,39733,-55941,1680,39235,48991,-374
901,-43855,-19947,38253,-49004,1846,37467,45770,2947
950,-46095,-15057,45677,-54490,-10331,13943,51685,-1257
950,-43264,-15465,42382,-50910,-7125,17883,48208,2920
950,-38859,-15201,40439,-47042,-6163,17003,43607,8376
950,-39635,-23921,38505,-54924,4603,47260,47545,-14792
950,-37910,-21317,35837,-52349,3145,42825,45513,-12710
950,-33977,-19935,37694,-53122,162,40136,51395,-2370
950,-32389,-19106,35725,-50321,146,38078,49863,-5602
950,-30940,-18112,34421,-47312,-824,33934,48273,-7791
950,-35401,-16317,38097,-59112,-8414,27232,39589,8880
950,-32425,-15285,35920,-49645,-7197,18458,39900,-4641
999,-28868,-17390,38118,-46821,-6051,23467,45279,1174
999,-28840,-20197,34305,-45747,549,34190,45266,2988
999,-25611,-14121,35219,-38767,-7447,11197,41495,3262
999,-22253,-19655,32289,-40498,1012,35966,47949,276
999,-24186,-18673,30870,-37783,663,33328,44776,508
999,-23366,-20299,29106,-43988,1954,44753,47732,22
999,-22616,-19336,28063,-41026,2233,41187,45096,689
999,-22641,-17916,26916,-36691,1317,36861,42883,1059
999,-20282,-17923,28575,-40828,85,33064,41161,10002
999,-20630,-17001,27349,-38791,-1249,30859,39465,10099
1047,-18120,-15459,29582,-33033,-4517,21330,44163,8961
1047,-16762,-17964,24660,-34092,1331,37126,45190,13442
1047,-15808,-16806,23586,-34018,-336,33356,44404,12717
1047,-16332,-17021,25160,-33406,-1050,36029,36158,16347
1047,-13934,-15963,24442,-28400,-625,29923,37248,7174
1047,-15395,-15758,23768,-28822,-229,24229,37629,2556
1047,-14197,-15178,22641,-27754,-342,22150,33811,5420
1047,-14336,-13873,22098,-27648,-2372,18067,30730,9186
1047,-12175,-16938,20201,-32796,782,37898,36056,-3659
1047,-12580,-15657,19668,-28636,-496,30662,31233,-11290
1096,-16020,-15035,22555,-27221,-3708,21506,34458,15853
1096,-15552,-15661,20376,-25730,-189,26330,32704,13392
1096,-12537,-10722,21346,-21697,-5727,8513,30885,7646
1096,-11624,-6961,22691,-18257,-14210,-8807,31575,-4900
1096,-10186,-10414,19630,-22112,-7966,7660,29460,-1298
1096,-11026,-15101,17058,-30030,-778,31291,34056,-10245
1096,-10334,-14369,16483,-28418,-396,29924,33094,-9004
1096,-7788,-12810,16372,-25951,-1144,24159,31851,-10727
1096,-6621,-13483,15995,-21532,990,17647,25080,-2739
1096,-6991,-12121,14920,-19968,565,16732,22564,-2201
1145,-6440,-8789,16887,-21403,-5955,10114,28854,11940
1145,-6824,-12436,14226,-22864,-377,24488,28320,13111
1145,-7496,-11413,14604,-20477,-1722,18127,27626,9603
1145,-5236,-13325,14427,-19440,2047,19160,24749,-11499
1145,-7109,-12319,13410,-17951,2330,17804,23174,-5768
1145,-11321,-5665,16843,-12626,-12573,-11951,20188,12346
1145,-9951,-10876,11790,-15514,-2826,13443,22243,6544
1145,-7829,-14079,8865,-16104,3888,26619,24096,-178
1145,-8505,-12743,11114,-19616,301,22523,24575,-2733
1145,-7112,-11006,9593,-20435,-1732,21245,23548,-2244
1193,-7435,-5001,13764,-11950,-9270,-4220,16167,-4221
1193,-5925,-6439,12560,-17167,-7644,8989,16192,-3024
1193,-3314,-6381,11978,-17775,-8071,12873,17060,-3497
1193,-2748,-11213,9252,-16395,2199,19163,22750,-6903
1193,-4766,-10529,8804,-15144,2200,17769,20980,-5250
1193,-4946,-10199,7887,-15993,16,18885,20391,2143
1193,-2826,-9727,7910,-14155,881,17761,19545,-34
1193,-1264,-8515,7631,-12361,798,14805,18465,-2293
1193,-4011,-2500,9487,-9964,-10153,-8939,14461,-19240
1193,-1442,2388,11426,-7032,-17085,-27112,11974,-18398
1242,-6094,-5607,8213,-15127,-6416,5929,18501,51
1242,-5323,-9191,5875,-14373,45,19495,16594,531
1242,-6083,-10327,5041,-13083,2541,22681,13640,2773
1242,-3369,-6274,7997,-8741,-3717,2037,13898,3240
1242,-1547,-5307,7199,-8056,-3588,1729,13374,2950
1242,-3586,-10464,4322,-10852,3377,21085,16833,343
1242,-1996,-9634,3882,-10979,2898,19691,15805,211
1242,-242,-8311,3778,-11180,1598,17026,14402,636
1242,-2029,-8854,5362,-10708,2959,16928,13113,2427
1242,-3229,-7861,4604,-9996,3084,16056,13012,1996
1291,-75,-6351,4781,-11217,-1433,12447,12564,1191
1291,-246,-8248,2904,-11729,2722,22080,12494,917
1291,-2800,-6146,5164,-8353,-799,9365,10481,2162
1291,1660,-6635,3666,-9482,413,14675,11560,1152
1291,3157,-6092,4143,-9100,-301,12528,11088,1572
1291,-1253,-2952,6478,-6212,-6402,-2824,9568,-1057
1291,-538,-2968,6229,-5235,-6187,-2713,8963,-413
1291,1396,-2396,6284,-4228,-6649,-4665,8357,138
1291,1430,-7910,3505,-6363,4905,16973,9014,-68
1291,1786,-6757,3541,-6611,3118,14845,8832,-705
1340,-3045,164,6738,-3601,-10825,-13123,7030,-2148
1340,-1065,-667,6062,-4170,-9143,-8981,6522,-1483
1340,1810,-1866,5342,-4060,-6621,-4791,5646,-472
1340,-531,-8969,1075,-7832,6001,24632,8150,700
1340,762,-8015,1442,-7260,4919,21022,7451,462
1340,2231,-6260,2553,-5269,3207,13421,5447,733
1340,3029,-5782,2411,-5257,3103,12698,5253,-643
1340,1619,-4820,2269,-5374,2082,10603,5200,-1816
1340,5251,-1286,4633,-2711,-4921,-4829,4089,-560
1340,3151,-1178,4486,-2391,-4270,-4589,3749,-373
1389,7709,-3415,2739,-4476,425,9978,4712,-1771
1389,8228,-4819,1187,-6039,3227,15141,5156,-2394
1389,8505,-1074,3311,-3455,-2627,-1108,3956,-1647
1389,6410,-4092,1556,-3085,3335,7615,3430,-1616
1389,3722,-3528,1717,-2989,2429,5576,2793,-1053
1389,6642,-4909,834,-4360,6091,14955,2868,-1069
1389,6298,-4023,790,-3568,5111,12088,2416,-942
1389,9559,-1286,-870,-4634,736,8223,2069,-1536
1389,8939,-657,-1146,-4503,-11,7440,2033,-1577
1389,7197,31,-39,-3852,-1439,3432,1784,-1711
1437,10374,-631,-47,-2367,1879,6099,537,-1986
1437,9909,-2150,-1203,-3773,4099,12608,1186,-2130
1437,11399,62,-389,-1977,2157,5323,314,-939
1437,9398,99,-266,-1396,2518,4705,131,-800
1437,10244,732,-140,-966,1352,2392,-36,-932
1437,14790,1755,-1204,-659,1494,2499,-279,-4085
1437,13559,1846,-1235,-830,1164,1858,-296,-4184
1437,11174,978,-2316,1058,4045,6507,-1131,-1281
1437,10966,1670,-1910,-130,2465,4013,-1007,-1496
1437,11559,2907,-2450,1052,1513,-735,-1951,-860
1486,14291,6497,-292,4079,-3944,-10273,-3273,-658
1486,12610,3363,-1558,2970,434,-279,-2386,-1150
1486,14670,8747,241,7574,-5975,-21106,-4786,-1280
1486,12629,9426,837,8554,-7080,-25167,-4716,-1066
1486,14063,11431,1707,9128,-10656,-32467,-4941,-1096
1486,17273,3337,-5381,2764,4503,6788,-2211,-3110
1486,15983,3307,-5109,3006,4208,5762,-2115,-2987
1486,16213,4239,-4664,5210,4094,2365,-3352,-3067
1486,16999,4694,-4404,5528,3252,313,-3296,-2877
1486,16394,4923,-6217,7176,4779,2599,-4008,-3063
1535,17475,9943,-2900,10735,-4179,-19220,-5594,-1498
1535,18261,6376,-5382,7581,2562,-1743,-4005,-2107
1535,15912,5632,-6679,6949,4331,2920,-3305,-2226
1535,16185,5966,-7255,7337,2581,371,-4641,-3081
1535,15871,5810,-6737,7224,2276,-398,-4423,-2959
1535,17445,11206,-5626,11812,-5754,-19288,-7412,-2396
1535,16611,12410,-4296,12509,-8963,-26710,-7481,-1951
1535,18719,6812,-10012,9091,3489,2801,-5695,-3237
1535,17517,6473,-9144,9291,3962,2057,-5543,-2960
1535,15333,6950,-8135,10177,2872,-1783,-5597,-2660
1583,19858,13173,-7026,15912,-6413,-25471,-8971,-2279
1583,20553,11829,-7353,14613,-4572,-20506,-8387,-2282
1583,23074,7137,-13839,11400,4816,5338,-7161,-2781
1583,21883,6634,-12691,10831,4192,4770,-6711,-2715
1583,19763,6955,-11630,10910,3287,2373,-6464,-3063
1583,27262,7692,-13076,13818,2219,-1047,-8457,211
1583,25371,7337,-12217,13307,2036,-1411,-8194,174
1583,34793,9549,-14733,15186,-2499,-3296,-9544,-2218
1583,31595,6845,-17171,13029,-2080,5553,-8342,-2213
1583,36498,8642,-13110,16671,3470,-3223,-9699,-2580
1632,37494,11971,-11925,19248,1271,-15359,-10918,-2257
1632,35196,8421,-12867,16218,6941,-2178,-9395,-2519
1632,33315,9584,-10049,17284,4414,-11220,-9529,-1924
1632,36828,12865,-14013,18908,-6288,-20893,-11700,-1789
1632,35483,12674,-15017,17963,-4965,-19493,-11099,-1720
1632,38109,7690,-14839,18459,5218,329,-10572,-2852
1632,37110,7757,-13706,18043,5322,-2291,-10307,-2475
1632,38048,9187,-14366,20624,11784,-4306,-11450,-2655
1632,36521,9170,-13255,19966,11301,-4805,-10892,-2656
1632,36255,9348,-11688,19703,8366,-8216,-10682,-2395
1681,38428,10082,-17386,20910,2982,-3013,-12284,-2544
1681,35811,9301,-16263,20361,3495,-3184,-11632,-2218
1681,33947,13322,-12189,23107,-4048,-23760,-12565,-1497
1681,35043,9399,-16404,22185,3519,-5361,-12438,-2357
1681,32812,9257,-15622,21422,2934,-6360,-11935,-2180
1681,33902,13640,-13663,26560,-2753,-23307,-15050,-1616
1681,31612,13142,-12981,25052,-2520,-21859,-14262,-1513
1681,32050,8585,-18092,24962,7104,-2073,-14024,-2456
1681,29499,8756,-16973,23095,5749,-3054,-13276,-2490
1681,28972,9377,-15439,22472,3967,-6677,-12926,-2217
1730,29752,15136,-15181,32161,-3831,-29556,-16594,-1969
1730,27769,15201,-14336,29250,-5900,-30173,-16158,-1690
1730,26080,13075,-14542,25785,-4626,-23178,-15029,-1446
1730,28731,8038,-20576,26660,7476,1724,-14567,-3173
1730,26488,8403,-19579,25683,5756,-1218,-14096,-2587
1730,25961,9390,-19591,29736,7425,-4220,-15858,-1840
1730,23295,9168,-18663,27882,6650,-4228,-14981,-1894
1730,25224,14005,-18644,33531,-713,-22776,-18298,-1830
1730,23644,13116,-17742,31709,-734,-21163,-17348,-1682
1730,22045,12223,-16502,29800,-1655,-21108,-16595,-1373
1779,22484,12976,-24025,33592,-4281,-17744,-18751,-1755
1779,21379,9031,-24949,29427,-790,-1411,-16591,-1998
1779,20031,8993,-21644,28979,-2146,-6026,-15988,-1709
1779,18005,9302,-22989,30959,3194,-3843,-17391,-2115
1779,18863,9157,-21161,29828,2623,-6553,-16682,-1925
1779,18357,6695,-20212,32634,12064,1136,-17941,-2035
1779,16009,6802,-18237,30987,10814,83,-16983,-2083
1779,16073,9450,-21377,34435,4166,-5928,-18606,-2359
1779,15207,8706,-19186,32704,4599,-5775,-17656,-2159
1779,15890,8529,-17979,31238,3863,-6971,-16913,-1979
1827,16182,9735,-18105,37692,4241,-16329,-19946,-1968
1827,15236,6083,-20447,34097,10374,-997,-17744,-2294
1827,14633,7900,-21130,33424,8118,-5218,-16852,-2221
1827,13740,8516,-19647,34807,5661,-7487,-18285,-1996
1827,12000,8870,-19568,32359,5403,-7509,-17211,-1987
1827,13746,9207,-23469,36807,6467,-9067,-18933,-2292
1827,11760,9187,-21543,36308,6787,-10076,-18063,-2212
1827,11450,7502,-23905,35087,6912,1145,-18543,-2359
1827,10554,7698,-23981,33495,5747,-828,-17646,-2272
1827,10215,8256,-23024,32680,4744,-5510,-17010,-2106
1876,9565,10454,-23258,38024,-1830,-12794,-19747,-183
1876,9732,8512,-23158,35498,532,-7197,-18446,-183
1876,9186,8709,-21708,34689,-702,-10866,-17823,-226
1876,11999,14026,-12104,42706,-827,-38456,-21731,-1604
1876,11238,10286,-11977,38461,4885,-24874,-19690,-1887
1876,10673,8228,-24251,38284,7004,-5825,-19224,-1854
1876,9825,7791,-22197,36779,6017,-7032,-18313,-1700
1876,9566,7500,-20276,39849,9349,-7359,-19079,-2374
1876,7684,6973,-19070,37626,8148,-7141,-18003,-2212
1876,8542,7178,-17865,35736,5373,-9806,-17300,-1962
1925,6982,11931,-26110,41092,-2416,-20802,-20703,-1852
1925,6670,7696,-27127,37109,5200,-5960,-18586,-2125
1925,6841,8533,-24267,37089,4063,-13504,-18005,-1837
1925,8401,8615,-33334,40867,323,-8212,-18609,-2682
1925,7667,8401,-33308,38154,-2685,-8202,-17647,-2457
1925,7502,12269,-14386,42978,197,-30313,-21295,-1523
1925,7406,14461,-11706,42737,-4671,-41244,-21032,-1129
1925,6594,10014,-13783,37291,1628,-21680,-18881,-1689
1925,5560,3159,-2072,36782,13107,-3358,-17681,-2544
1925,3827,3174,-2565,35500,13901,-5566,-16923,-2359
1973,6115,12807,-23511,43732,2490,-31640,-20777,-1658
1973,4511,11441,-21421,40755,822,-27366,-19723,-1471
1973,5654,9507,-20050,37247,1358,-20145,-18341,-1542
1973,3772,4236,-14246,37623,22467,1117,-17710,-2561
1973,5255,4281,-14066,36776,22375,-1252,-16994,-2283
1973,4993,6278,-16189,38164,12063,-3024,-18233,-2535
1973,3390,6509,-14761,35782,9564,-3072,-17180,-2525
1973,2531,6233,-19314,40816,5851,-15782,-20099,-1571
1973,2580,1059,-20778,35817,14221,4135,-17578,-2032
1973,4223,1169,-19074,34758,14219,1865,-16599,-1912
2022,3179,8183,-10846,43210,13692,-24840,-20426,-1697
2022,2918,3530,-14962,38160,19218,-6439,-18319,-2104
2022,4313,2899,-17111,36083,18211,-5272,-17196,-2174
2022,4952,8757,-17495,39896,5686,-21191,-19521,-2459
2022,3663,8475,-15504,37660,4857,-21287,-18479,-2322
2022,1741,2492,-9302,36508,16260,-1750,-18197,-694
2022,2150,2770,-12281,34497,9965,-2294,-17258,-952
2022,4772,5988,-24539,36616,10545,-5409,-18469,-3276
2022,4589,4923,-20816,34463,9930,-5076,-17368,-3470
2022,3869,4447,-17914,32853,6536,-6656,-16613,-2937
2071,2159,5479,-15611,36128,13459,-9061,-19194,-3418
2071,1440,2673,-13912,33332,19001,-861,-17620,-3154
2071,1797,5795,-11585,33921,12660,-15812,-17636,-2520
2071,3892,5565,-23743,33858,9562,-6236,-17857,-3356
2071,3267,5289,-22889,32251,9678,-6351,-16815,-3277
2071,4712,14462,-34055,35033,-14286,-23506,-19108,-3668
2071,3858,13198,-30348,33723,-8592,-23680,-18195,-3401
2071,2478,6083,-20469,31972,8524,-3284,-17926,-3744
2071,1199,5665,-19094,30218,7456,-3708,-17052,-3421
2071,2270,5852,-17351,28896,5021,-7245,-16405,-3079
2119,627,10355,-15323,34802,-3055,-28718,-19366,-3897
2119,730,11491,-15385,34270,-7865,-33839,-19059,-3262
2119,1053,10422,-15954,32428,-6642,-29350,-17876,-3053
2119,530,2248,-12385,26284,13614,9540,-15899,-3778
2119,372,2787,-12995,25686,12180,5311,-15328,-3309
2119,1412,3335,-7659,29581,12792,-4908,-16824,-5791
2119,584,3303,-10561,28645,12602,-5005,-15987,-4969
2119,2731,9194,-14040,31751,6615,-25554,-18814,-2824
2119,2050,8427,-14591,30057,6086,-23591,-17904,-2592
2119,698,8645,-13318,28742,4379,-25410,-17077,-2506
2167,2242,9548,-14256,28709,696,-23044,-17470,-2684
2167,2015,8021,-13777,25156,2417,-15748,-16115,-2705
2167,1724,5138,-14299,21747,6650,-4005,-14442,-3300
2167,1453,4802,-15682,23499,8879,-3582,-15177,-4059
2167,1692,4847,-14609,22251,7036,-5205,-14513,-3765
2167,-648,1324,-17032,20971,12141,8271,-14999,-4490
2167,-438,1042,-16490,19838,12494,9391,-13741,-4409
2167,662,4882,-14898,21760,3059,-5524,-15358,-4008
2167,-742,5232,-11791,21130,2899,-7026,-14634,-3900
2167,585,9044,-5676,27123,-2678,-30561,-16841,-4037
2215,1891,8418,-8896,23689,-2567,-22141,-16030,-4074
2215,302,8522,-10039,21795,-5246,-21240,-15225,-3770
2215,-745,3167,-10050,20713,7742,-3330,-14536,-4517
2215,-904,3032,-7212,19592,9366,-4685,-13850,-4084
2215,-254,4098,-16700,19945,2775,-5471,-14438,-4399
2215,1171,4042,-18302,18790,2365,-5536,-13566,-4274
2215,1489,4453,-15652,18226,1769,-8266,-12915,-4123
2215,-804,1749,-14083,16930,5393,2670,-13134,-4446
2215,1115,2278,-12938,16106,3877,494,-12451,-4347
2215,-1585,3752,-12512,16611,-3027,-6595,-13644,-3387
2264,-122,6988,-6985,21044,5061,-22901,-14712,-4234
2264,1634,2726,-8099,18156,12321,-5714,-12702,-4589
2264,-1336,7042,-9638,19381,-11131,-21414,-14412,-4300
2264,-1108,6785,-8940,18316,-10431,-20878,-13690,-3826
2264,-1120,3310,-15166,15741,3353,-2853,-12819,-4874
2264,716,3327,-12960,15189,-338,-3670,-12195,-4113
2264,1047,4100,-11918,14874,-6600,-7205,-11819,-3642
2264,-657,3305,-12265,14786,-4279,-5557,-11862,-4583
2264,-1906,3335,-11526,14420,-4973,-6866,-11507,-4151
2264,-1076,3224,-18465,14202,-2771,-1002,-11653,-4965
2313,-944,2652,-7618,14547,-4442,-7172,-12083,-4474
2313,-2017,1731,-7856,13563,-1336,-2645,-10987,-4497
2313,1035,3998,-12144,14158,-7041,-7182,-11457,-5268
2313,486,3162,-10836,13761,-6414,-6735,-10939,-5002
2313,-1750,6463,-11533,15472,-16226,-21489,-12812,-3984
2313,-169,6094,-10757,14802,-15504,-19884,-12117,-3795
2313,-1895,9518,-6484,17799,-25114,-38787,-12899,-2880
2313,-1761,2293,-13132,12651,-6782,-2079,-10469,-4435
2313,-326,1677,-10026,13419,-3316,-3721,-10096,-4161
2313,-725,2847,-11696,12074,-9389,-4147,-10481,-3739
2362,-1645,8675,-6039,16293,-22268,-31643,-12008,-3586
2362,-147,7036,-6566,14176,-18141,-24055,-10904,-3713
2362,-65,682,-15354,10405,-4904,3968,-9178,-4803
2362,137,1581,-14243,9523,-7004,3119,-8433,-4795
2362,-2769,1558,-7772,12058,4827,-1906,-9255,-4029
2362,-2269,1514,-7387,11098,1622,-1884,-8645,-4024
2362,-155,1901,-7307,10108,-3604,-2870,-8124,-4041
2362,-536,5341,-8759,13824,-22112,-17991,-10324,-3524
2362,-628,9404,-5071,16768,-31439,-37895,-11125,-2877
2362,77,1018,-11245,8633,-11514,653,-8369,-4566
2411,255,1149,-9338,9611,-8922,-1213,-8439,-4075
2411,58,848,-9179,9191,-7477,146,-7833,-3943
2411,258,6506,-8408,12230,-22409,-22196,-9747,-2189
2411,-1499,6983,-9132,11815,-22488,-23793,-9547,-2150
2411,-1749,6182,-10015,11231,-21178,-21632,-8966,-2398
2411,-1063,-515,-2725,7198,-1750,6746,-6667,-4865
2411,-45,-123,-4458,6377,-4121,4954,-6441,-4386
2411,-1651,835,-14135,7846,-13434,559,-7805,-1918
2411,108,1220,-13283,7736,-10742,-1037,-7359,-2581
2411,1066,3091,-5115,12475,-8145,-15859,-9001,-6099
2460,-16,5443,-13063,10192,-18336,-16669,-8231,-4390
2460,-1996,2662,-11155,8185,-11315,-5380,-7185,-3851
2460,-834,671,-9919,7567,-10578,2178,-6850,-3877
2460,-1796,919,-9429,7279,-10652,1285,-6536,-3678
2460,-230,1675,-8404,7316,-12330,-2563,-6419,-3391
2460,-1845,6304,-3027,10399,-23139,-21532,-8294,-3084
2460,-474,5586,-4155,9393,-21508,-17633,-7611,-3051
2460,472,-30,-8966,6304,-5691,6155,-5762,-4212
2460,-51,159,-7828,6132,-6508,3925,-5677,-3773
2460,-1720,626,-7509,6107,-9035,1871,-6092,-3670
2509,-664,6768,-4207,11374,-25778,-26622,-8267,-2616
2509,-2332,5441,-5272,9616,-22683,-20157,-7577,-2533
2509,-1757,-3343,-12153,4058,-1625,17318,-4986,-4177
2509,-325,-2440,-10579,4814,-3316,12361,-4948,-3925
2509,-371,-1010,-8822,5671,-6040,5878,-5128,-3545
2509,-735,443,-5181,5817,-7159,1756,-5245,-3261
2509,779,803,-3822,6148,-6666,-374,-5107,-3201
2509,-1026,6713,-11616,8624,-22290,-20252,-7005,-2943
2509,502,5835,-9448,7904,-20408,-17401,-6552,-2792
2509,-729,202,-7645,5038,-6480,2755,-5102,-2945
2558,-1871,1658,-7736,6149,-12924,-1747,-5775,-2471
2558,-198,244,-7818,5267,-8996,2969,-5062,-2462
2558,-925,881,-10601,5386,-11610,876,-4904,-2842
2558,-860,701,-9521,5160,-11308,727,-4669,-2631
2558,-2402,920,-8228,5097,-11450,-548,-4509,-2415
2558,-184,-1162,-8107,3032,-4887,9951,-3865,-2923
2558,-1701,91,-7405,3280,-6473,6303,-3678,-2815
2558,-2436,1143,-7639,5033,-8324,-649,-4678,-1754
2558,-2319,924,-6796,5162,-8052,-1290,-4530,-1580
2558,-2455,5425,-4091,7341,-20853,-20545,-6298,-1711
2606,1872,4071,-2622,7976,-18257,-17484,-6239,-1608
2606,1544,4314,-2505,7541,-19160,-18914,-6155,-1733
2606,-2108,631,-6746,3583,-3890,1863,-3988,-2465
2606,-724,924,-6716,3339,-4258,1686,-3783,-2383
2606,-1825,1427,-6730,3524,-7923,-333,-3627,-2314
2606,-53,1222,-9519,3732,-8734,193,-3926,-2156
2606,-680,1063,-8314,3677,-8508,-306,-3767,-1992
2606,-1796,-684,-7352,2329,-2552,7223,-3344,-2921
2606,-1379,265,-6440,2366,-4476,3824,-3165,-2881
2606,-1976,796,-6470,5138,-5419,-1150,-4314,-1878
2654,181,5523,-1431,7084,-20972,-22377,-5636,-1271
2654,-1126,3351,-4325,4736,-13659,-9790,-4745,-1448
2654,-1807,3915,-4542,5535,-14315,-14430,-4951,-1729
2654,-118,3769,-3719,5203,-14356,-13554,-4722,-1635
2654,263,4727,-2458,5738,-17099,-17750,-4704,-1462
2654,-1656,-72,-8822,2325,-3600,4950,-3156,-2027
2654,-1463,302,-8315,2700,-4526,3161,-3124,-1860
2654,1280,964,-6802,2754,-8284,2044,-3257,-2847
2654,878,794,-6445,2735,-6434,1515,-3056,-2739
2654,-2824,211,-7581,2178,-2621,4563,-3117,-1042
2703,-1756,3059,-6109,3760,-11918,-8779,-4525,-848
2703,-1633,1585,-5855,3444,-6593,-3295,-3577,-1245
2703,-39,260,-7089,2977,-3662,1952,-3172,-1809
2703,-33,486,-6612,2853,-3982,1043,-3009,-1763
2703,-260,1474,-5834,3282,-6111,-2773,-3083,-1585
2703,-1907,4072,-8536,4897,-16688,-13695,-4700,-861
2703,-1961,5197,-5654,6311,-18199,-20239,-4958,-598
2703,-1055,-338,-9202,1587,-5567,5668,-2607,-1717
2703,613,-373,-7849,1876,-2501,4800,-2533,-1564
2703,-1420,827,-8980,2358,-6265,1595,-2932,-1381
2752,528,6492,1279,7187,-13583,-26534,-4997,-608
2752,11,5512,2999,6747,-7221,-22717,-4730,-536
2752,459,-300,-7423,933,1790,9088,-2345,-1608
2752,-944,390,-9118,1208,-2100,7125,-2229,-1632
2752,193,1507,-13607,707,-13326,3746,-2661,-1532
2752,83,1591,-11340,441,-11540,2773,-2564,-1362
2752,185,2211,-7782,1045,-11438,-993,-2716,-1342
2752,499,3173,-3575,4240,-8588,-11579,-3912,-1622
2752,932,4557,-3657,4614,-13213,-15757,-3979,-1496
2752,-1761,-654,-5195,2785,914,2600,-2731,-2165
2801,-200,1751,-4022,2970,-5507,-5137,-3021,-482
2801,-2236,-414,-5689,755,-292,5352,-1934,-473
2801,81,5663,-3146,6529,-15754,-23251,-4438,-361
2801,-1181,4764,-3163,5752,-13595,-18839,-4240,-358
2801,-1325,-381,-7638,1219,636,6782,-2388,-1425
2801,473,-192,-6971,1248,293,5428,-2313,-1273
2801,567,703,-5884,1979,-1722,1269,-2483,-1082
2801,-524,14,-4510,2433,220,2607,-2493,-1501
2801,-1812,353,-4448,2491,-1385,526,-2500,-1331
2801,-355,3252,-931,4140,-6889,-12074,-3845,-369
2849,-1442,2239,519,2795,-4297,-7366,-3216,-542
2849,-987,1583,-809,2293,-2985,-4131,-3105,-1005
2849,-1576,-409,-782,1290,4823,3964,-2284,-713
2849,-196,-296,-1992,1786,3330,2372,-2295,-597
2849,338,561,-5562,1850,-3238,1860,-2363,-920
2849,-1244,827,-4586,2230,-3224,130,-2352,-770
2849,-1802,-1783,-6595,317,-49,7637,-2059,-1279
2849,-1523,-1487,-6056,847,-181,6040,-1966,-1198
2849,387,-548,-4721,1949,-1943,1359,-2105,-1012
2849,-609,1862,-8467,-249,-6871,2230,-1859,-1919
2897,1271,4057,-2670,4667,-11456,-17107,-3351,-1463
2897,-464,6376,-882,5798,-16865,-25860,-4007,-885
2897,1042,4501,-2508,3732,-13454,-15190,-3792,-598
2897,1011,7060,-215,5567,-18890,-27329,-4366,-415
2897,121,-1236,-3529,-580,1052,7575,-1501,-1304
2897,-1281,-752,-3294,-116,85,5629,-1464,-1269
2897,-1294,-139,-5977,-205,-922,5315,-1700,-119
2897,483,0,-5459,213,-1295,3923,-1748,-81
2897,509,1377,-4192,1465,-4880,-2874,-2097,83
2897,252,-1066,-6878,106,1052,5757,-1693,-624
2946,-1218,3443,-2384,2915,-13783,-11589,-3167,2225
2946,-1193,-924,1951,2264,4599,3342,-2207,1336
2946,-1270,-292,-4167,772,-493,3672,-1729,-920
2946,645,-75,-2745,732,-631,2739,-1631,-936
2946,-1213,-1165,-5043,1157,1096,7699,-2234,-1296
2946,-1210,-3034,-6296,-1090,5947,16354,-783,-1867
2946,-1000,308,-5038,633,-3524,2043,-1539,-207
2946,886,403,-3634,630,-1747,1306,-1499,-301
2946,868,1251,-2226,1352,-2175,-2717,-1707,-139
2946,-1368,315,-816,1341,-799,319,-1697,-23
2994,1282,4462,139,3367,-14824,-18359,-3268,370
2994,87,4035,-844,2949,-12889,-15775,-2919,306
2994,759,-1611,-1923,557,2785,7691,-1001,-551
2994,-1078,-715,-4710,-183,-1742,6683,-792,-337
2994,-1487,673,-6536,201,950,2833,-1395,-114
2994,428,1561,-7443,456,-3920,687,-1442,21
2994,324,-1822,-4452,-623,2388,9418,-1413,26
2994,-1105,-1662,-4009,-770,2219,8380,-1107,123
2994,115,-429,-3260,-613,-1296,2951,-1202,215
2994,-1876,947,-4194,-237,-1116,630,-1582,2203
3043,720,1490,-2809,1062,-4886,-3987,-2244,1344
3043,1209,47,-3926,326,-1182,2040,-1641,1039
3043,287,4980,-1073,2474,-14994,-16205,-2665,-320
3043,1957,4663,-1101,2790,-14062,-15928,-2686,37
3043,2027,11,-4041,434,1642,4664,-1088,-1286
3043,1110,157,-3544,-491,-251,2961,-966,-1232
3043,-31,252,-4215,1927,-116,1009,-1415,66
3043,-1436,307,-3324,1051,-683,830,-1155,54
3043,-1160,1406,-2976,608,-3777,-2359,-1158,173
3043,-487,-956,-557,35,8856,8093,-1039,3034
3092,-476,4227,-1480,1674,-10629,-11613,-1984,-2483
3092,1716,397,-3173,-678,-946,3583,-985,-2494
3092,-363,630,-2994,1073,-1789,832,-957,140
3092,-659,575,-2575,1043,-2163,45,-1111,766
3092,2216,5396,-4232,3642,-14740,-16505,-2472,-136
3092,2330,4905,-2319,3304,-13374,-16002,-2481,906
3092,-262,-567,-1869,700,3686,4832,-851,1377
3092,-658,34,-749,434,3551,4127,-633,1231
3092,-2159,1029,392,1136,1132,-47,-821,1382
3092,-2497,182,-3052,398,-1579,478,-1061,1644
3141,-196,5762,1896,2940,-17006,-21302,-4018,3665
3141,-1709,3893,1717,2090,-11780,-14202,-3875,4230
3141,-750,-1088,-5067,-1745,2015,12252,1751,-1233
3141,-438,-842,-4999,-1072,-734,8430,1069,-1067
3141,-1029,23,-3281,1,-1022,2385,-818,908
3141,-1257,130,-3125,331,-698,1622,-875,717
3141,596,470,-2939,861,-2301,-1183,-1122,833
3141,-172,3866,-980,3404,-10477,-13888,-1922,1621
3141,450,4492,-630,3973,-11091,-15868,-1942,1038
3141,-32,221,-4376,-657,-2046,2689,-243,-243
3190,-2263,4595,-964,2858,-12638,-17373,-2341,3658
3190,-1773,2587,-2087,889,-7479,-7519,-1616,2586
3190,2908,194,-1650,-35,-2791,2943,-831,-776
3190,3325,1417,-2510,163,-3945,-1707,-683,-1100
3190,-2742,-1326,-4684,-1036,3005,8929,-425,1947
3190,-940,-824,-3949,-436,2088,6675,-294,496
3190,-2383,-187,-2945,-104,-664,2489,-532,242
3190,3331,-323,-2983,103,-137,3139,-635,385
3190,3460,226,-2583,423,-1514,805,-753,423
3190,-3577,2554,1765,3010,-8781,-13658,-2475,4826
3239,-1834,2038,833,2863,-4824,-9967,-2072,1047
3239,-629,-1375,-2284,-146,3277,6661,-933,1096
3239,-3336,-214,-3293,351,56,2855,-936,1936
3239,-3418,174,-2974,594,-894,1206,-727,1715
3239,-1927,599,-1807,-99,-2163,1783,-956,2441
3239,-1815,2596,-2886,1094,-5761,-6168,-1318,2412
3239,-1091,6800,-1421,3950,-15991,-24672,-2552,2769
3239,860,-642,-2454,-2052,3429,7486,-1403,4062
3239,787,-170,-4049,-1758,-1029,5910,-1609,4592
3239,-1274,240,-2417,-852,262,2490,-1293,4460
3288,-437,6012,1322,5411,-15251,-23263,-739,1031
3288,-2117,3911,-56,3804,-11318,-14719,-731,1606
3288,-961,3536,1193,2263,-12243,-15398,-2896,2369
3288,-605,3003,889,2382,-10365,-13361,-2461,1901
3288,-1897,-1718,-2820,-1658,1561,8916,-236,2740
3288,369,-1264,-2365,-1071,770,6968,-385,2461
3288,-293,-362,-2288,-1272,-59,4959,-710,2326
3288,-92,2348,-542,839,-7355,-7519,-1420,2433
3288,359,5841,1684,3108,-16352,-22590,-2494,2771
3288,1292,-970,-2969,-1815,2988,8387,-589,3348
3337,-467,2586,-388,175,-6747,-7202,-1542,3956
3337,-733,-1077,-2310,-2190,2349,8026,-445,4240
3337,1478,-1011,-2273,-2212,2134,7220,2,113
3337,1229,-763,-2127,-2407,621,5803,16,-110
3337,-1869,-1946,-2611,-1807,7317,10818,-928,3756
3337,-2387,-3445,-3876,-3021,10937,17510,-316,4719
3337,-1148,-981,-4588,-1914,-440,6039,-272,4561
3337,-2070,-832,-3548,-1296,268,4815,-407,4306
3337,-660,283,-2464,-136,-913,293,-757,4160
3337,281,3977,598,1628,-5748,-13544,-1658,4748
3385,-1196,3708,448,917,-5287,-12254,-2183,5127
3385,-2034,2708,30,294,-3200,-8241,-1822,4732
3385,-2265,-1325,-1993,-2411,8762,9453,-29,4062
3385,-1503,-863,-1451,-1822,7575,6910,-187,3878
3385,-1591,-722,-1386,-1634,8498,7173,-400,4331
3385,-1743,-578,-1025,-1537,8063,6115,-476,4652
3385,-1942,-2585,-2620,-3557,13320,16076,308,4137
3385,-1007,-1995,-1996,-3124,10498,11978,322,3303
3385,-2708,-852,-1321,-2178,7369,6584,-214,3950
3385,-359,-640,-779,-1908,7920,5895,-798,5603
3434,-5323,4103,1991,1387,-3052,-14304,-2094,7709
3434,-4698,-227,-1790,-2853,6028,6482,-238,7135
3434,-4852,2333,1394,-441,-945,-8943,-2065,7264
3434,-3329,2350,1409,-398,-929,-8820,-2008,6814
3434,4086,-434,-1894,-3844,8512,10711,64,4907
3434,603,-632,-1662,-3286,7692,9144,-383,5607
3434,-848,-692,-706,-3265,5591,7184,-252,5831
3434,-422,34,-945,-3330,4558,5912,-126,4964
3434,688,799,-492,-2625,2535,2083,-126,3630
3434,-1762,-1590,-856,-3590,6471,10800,-128,6326
3483,-131,3617,1803,-1784,-5540,-9946,-1134,6287
3483,684,2624,349,-2856,-3246,-4327,-921,5930
3483,-1179,-1073,-727,-3901,2332,7534,-32,6536
3483,-1403,-1214,-528,-3424,1997,6389,-407,7053
3483,29,2096,1881,-2286,-5674,-7638,-1578,8468
3483,-661,2018,1648,-2618,-5564,-6671,-1248,7884
3483,-255,-2570,-651,-5128,3251,11568,118,6490
3483,-1756,-2243,-331,-4435,3238,10534,19,6101
3483,-1511,-1117,83,-3291,1781,6698,-320,5800
3483,-2873,-1340,-151,-3839,1911,6935,239,6118
3532,4126,5841,3371,-1615,-12051,-19711,-1621,160
3532,2391,4510,2554,-2270,-10482,-14934,-1472,976
3532,-1287,-2369,-928,-7543,3573,13559,591,6287
3532,410,-1996,-748,-7360,2810,11943,622,4182
3532,-2474,-1713,57,-8094,406,9285,228,7655
3532,187,-1107,335,-6994,-635,6859,305,6350
3532,-5368,968,3078,-3632,-4736,-8033,-1505,8511
3532,-4942,1084,2748,-3888,-4645,-6631,-1259,7015
3532,-2235,5467,4947,-696,-13709,-24403,-2454,6383
3532,4768,-1420,-765,-8361,2536,13149,2201,6178
3581,-93,-802,609,-6445,-678,4267,-506,5657
3581,-2430,-2740,-405,-7074,2869,10375,-179,6718
3581,3534,1074,2128,-6242,-4874,-4289,770,5675
3581,1328,3602,3535,-3872,-9601,-14502,-54,4555
3581,8342,-2768,-805,-9307,4956,15596,-2784,918
3581,8332,-2503,-471,-7909,4674,12361,-4730,928
3581,7287,-2016,106,-6329,3443,9247,-5569,2963
3581,-6257,-2463,788,-8603,2003,11221,2056,7599
3581,-2862,-1576,1423,-7460,425,6423,1101,7203
3581,-5037,-397,4164,-6112,-3876,-5774,-8844,5707
3629,2575,1206,3235,-7705,-4867,-3632,-964,4887
3629,1774,44,1445,-9324,-1878,4093,-327,5817
3629,-1715,-3025,1046,-7913,1773,8704,-3617,16735
3629,917,-2330,963,-8464,1089,7584,-3274,17444
3629,243,-1479,1646,-9850,-356,3948,2042,8508
3629,967,2303,4658,-6502,-8123,-14779,621,7675
3629,-6018,-4335,959,-13334,4578,17040,3030,3140
3629,-4339,-3917,1234,-12463,4047,14804,2857,2217
3629,-2329,-2837,1805,-11312,1806,9696,2397,-139
3629,4146,-1955,2484,-10022,2960,8658,-3485,5234
3677,4469,6,662,-11578,-2104,7377,-1349,-206
3677,2797,3866,3456,-7356,-9495,-10380,1363,-1127
3677,8406,3378,5215,-10420,-8484,-8103,978,2396
3677,11316,3671,4522,-10265,-8660,-6585,1339,2768
3677,-5280,-4570,2490,-14669,3545,19813,-77,5946
3677,-1525,-3740,2500,-13815,2805,19488,2155,8043
3677,1958,-3879,3641,-13484,3727,7174,-12958,11106
3677,6479,-3249,3268,-12934,3409,9555,-8104,8385
3677,9279,-2130,3377,-12402,2104,9194,13,3293
3677,28038,-644,1711,-16486,773,15246,1786,8781
3726,-18350,-3317,7233,-15215,-3283,1019,9757,3852
3726,-23195,-7345,5239,-16564,3783,14418,6949,-3123
3726,13774,-2516,4551,-16831,2101,11524,5933,-9561
3726,9019,-1698,3786,-16687,914,10758,6935,-7152
3726,-760,1653,9577,-17590,-14142,-16313,203,7999
3726,-3926,232,9954,-16621,-13167,-15544,71,10469
3726,-10879,-8092,7627,-21074,3380,16602,3052,23239
3726,-9061,-8289,7602,-18925,3290,16601,3725,19318
3726,-7762,-7398,7574,-16673,2437,15486,3978,12346
3726,12052,-6304,8841,-24486,2776,16697,14734,-4654
3774,-4939,-5828,13334,-20547,-6067,-11742,-9094,17977
3774,-10769,-5932,12232,-20194,-5010,-9170,-6002,19008
3774,-6492,-11484,11429,-30785,3400,20980,6867,2038
3774,-5447,-10586,11212,-28144,3664,18188,7164,3519
3774,4003,-10368,13608,-30239,2934,12802,19962,8034
3774,9606,-8773,12283,-29505,735,11858,23965,4352
3774,-12602,-14612,14845,-35144,7694,25084,-3124,19611
3774,-18887,-14285,14940,-32406,6977,20828,-5387,24330
3774,-13266,-12088,14671,-29903,3938,14429,-5028,19887
3774,-16785,-13245,16979,-33210,2689,2558,3178,11542
3823,-370,-11344,17878,-33614,487,15122,3963,-2276
3823,5359,-11229,16335,-32771,1668,15888,3157,-1888
3823,-7220,-10448,21889,-31036,-5107,-16063,-4277,-1432
3823,1810,-8437,19627,-31521,-6804,-11186,-3148,-2065
3823,-11567,-15271,20720,-38314,3053,23539,2220,4682
3823,-13759,-14281,20050,-35882,2323,21100,900,8376
3823,-2045,-14048,22089,-38969,2245,11897,-1242,3364
3823,2160,-12769,20489,-38464,509,11504,-7364,2187
3823,3168,-11442,20336,-36791,-1640,6435,-9559,6468
3823,10871,-14638,20866,-42216,5588,26377,15740,-5529
3872,11784,-10518,25036,-34591,-2202,-7799,9224,1578
3872,9137,-12238,21264,-35390,2390,6009,10168,-967
3872,-9565,-14480,25057,-38701,1480,12228,6385,9189
3872,-4939,-13296,24289,-35910,1116,9407,5132,9838
3872,8246,-7544,27352,-38016,-7236,-4633,6879,4011
3872,14307,-7207,25632,-35091,-6557,-2640,7492,-820
3872,19687,-11507,24948,-40696,2106,20987,4808,1296
3872,21894,-10861,23446,-40136,-454,22112,7820,-464
3872,17963,-9942,23189,-37037,-1451,16444,6259,-1321
3872,11242,-11128,24995,-35604,865,3863,2318,13691
3921,-3529,-7252,29618,-31221,-9515,-20109,9926,2462
3921,5338,-6665,27065,-30008,-7349,-13065,15943,3667
3921,-11538,-15012,24397,-36036,7138,14221,5533,12922
3921,-11544,-14509,23784,-32200,5757,8629,3336,14735
3921,-1246,-12219,25616,-36217,2176,16429,10555,18678
3921,-1191,-11739,24341,-34079,1476,14063,9084,18830
3921,-7621,-10045,28843,-30756,-4283,-3208,7890,693
3921,-1834,-9330,27102,-29543,-4133,-1636,8863,-2713
3921,-961,-8300,25259,-28509,-4738,-1808,9748,-4465
3921,2074,-11802,23857,-33161,2687,14175,9650,206
3970,-3296,-8599,27481,-26765,-4737,-7100,9121,1859
3970,-4873,-11240,24936,-26962,446,6986,8493,4868
3970,6055,-10882,22649,-27247,2386,7979,11770,566
3970,5926,-8797,22878,-25102,-770,750,10046,-8421
3970,6157,-12512,21774,-31326,5756,20857,8704,3926
3970,4828,-10834,20394,-29289,4466,18478,8858,450
3970,2332,-9346,20063,-26219,2471,10523,8649,902
3970,-6098,-10672,21219,-22813,4671,1197,4411,1448
3970,-10493,-9536,20012,-20493,4279,-335,3558,-4368
3970,13092,-6436,23437,-20487,-3905,-14835,7246,-7557
4019,-9011,-8886,22701,-24395,-1410,9794,15394,12084
4019,-12484,-11782,19783,-23588,6264,23266,13206,14297
4019,-7461,-11485,20079,-23220,2953,9613,4610,8430
4019,-5795,-10455,18754,-21542,2438,8579,4962,6637
4019,4575,-9481,20045,-18781,3292,3860,2357,16075
4019,6055,-6422,20128,-16405,-1640,-7222,496,11689
4019,6207,-1570,21027,-14149,-10275,-23885,-210,9143
4019,3898,-10979,17427,-21873,5197,18248,3753,929
4019,5891,-8771,15715,-21502,2125,11888,6988,930
4019,-1008,-8941,16543,-21279,1138,6399,10276,-19658
4068,5244,-2797,19541,-16460,-10259,-14149,9901,-3038
4068,7905,-3921,17550,-16505,-6666,-7152,6948,661
4068,4315,-3647,17616,-15370,-3764,-6635,16379,-4952
4068,3634,-8418,12624,-20823,5473,17843,14506,-4713
4068,7170,-8856,14160,-17467,4022,12229,12247,-1062
4068,7602,-7919,13308,-16287,3819,11467,10935,4631
4068,4866,-6829,12559,-14930,2872,8608,9012,9733
4068,2794,-8156,14420,-14955,3004,11700,18157,8982
4068,8496,-3893,15559,-11342,-3168,-3392,15184,1701
4068,2107,-7383,12499,-13303,4440,12128,8527,617
4116,-7382,-3823,15367,-11019,-6250,-10436,3084,2712
4116,-7609,-6793,12863,-12439,-11,1932,1384,488
4116,-7709,-7614,11692,-10584,3618,-26,6345,6986
4116,-2562,-6362,10677,-11260,1805,-4071,2521,8923
4116,8313,-4322,10440,-11350,1249,5075,4364,17766
4116,4844,-7863,7713,-13450,7637,18831,5996,13478
4116,-3994,-8091,8735,-10546,7135,12946,5223,12741
4116,-10529,-6310,9960,-10521,1859,6147,11473,-5755
4116,-13210,-6878,10140,-8700,2231,4516,8112,-81
4116,12897,-4140,9016,-7607,1206,3572,9959,-16009
4211,-7488,-4485,7978,-7476,-1524,4616,11,4108
4211,-660,-3059,7509,-6469,-2367,4142,-7130,18750
4211,-1955,453,10145,-2406,-9259,-14285,-3975,15275
4211,-6861,-494,10802,-801,-8498,-16372,495,13335
4211,-7194,-6959,6653,-6727,4401,5847,4909,-142
4211,-4991,-5788,5963,-5890,3150,4744,4830,3007
4211,1813,-5247,6166,-5273,2919,4290,4587,1614
4211,2412,-3557,4735,-5699,2087,4830,4667,-398
4211,2029,-188,6190,-4911,-4879,-8026,2966,-3334
4211,5985,541,6523,-4368,-7505,-11812,3217,-5110
4309,2452,3546,5774,-970,-10390,-18032,7573,-6236
4309,-67,1457,5268,-2355,-7086,-9199,6419,-3137
4309,-7704,-7113,1373,-7128,8169,16562,-973,567
4309,-4689,-5891,2075,-5547,6403,10523,-2052,-1948
4309,-890,-4558,3687,-1781,6390,2018,5765,1153
4309,-4866,-3518,3061,-2462,4346,2852,4063,933
4309,-4178,-462,4402,-736,-4852,-10879,2326,7068
4309,-8356,1249,6269,-52,-8068,-18139,807,8552
4309,-4304,238,6124,-1838,-5122,-11705,525,6190
4309,13544,-2224,723,-4606,3011,7144,-19,-5047
4358,3296,-3718,2687,963,4907,2314,3034,-2090
4358,-5728,-4820,3238,2426,6775,2491,581,5387
4358,427,-3354,1949,-3736,4044,6108,2126,-9259
4358,2857,-2784,1741,-2945,3588,4739,1650,-11438
4358,5519,-3975,-1480,-9417,4035,18350,3580,-5069
4358,-3564,-4462,332,-6148,3831,11250,-184,-7069
4358,6062,-1113,878,-3649,2475,4185,-7014,-3773
4358,11730,-1546,1262,-4731,1658,6212,-7655,-2607
4358,15732,-604,1539,-4971,-932,4001,-6771,-1796
4358,1220,2560,3880,-781,-7039,-16800,-1169,-1595
4416,5628,2147,2974,-455,-4678,-10564,4308,596
4416,-5611,720,4028,753,-5339,-17529,2272,4088
4416,12352,276,-869,-3319,2245,6306,5982,-5330
4416,9075,669,-763,-3564,147,4807,5081,-4002
4416,-108,-2571,1203,-1857,2823,3517,-3720,-7726
4416,-615,-1758,864,-3160,1498,4111,-730,-9899
4416,1880,-4339,69,-2767,6885,9695,3190,-2057
4416,3026,-3196,390,-2862,3998,6515,3336,-2676
4416,-1005,-1592,132,-3530,422,3534,1356,1706
4416,-3169,-2250,610,-3123,302,2746,1047,358
4464,2922,3464,4024,1308,-7048,-17842,1682,151
4464,2460,2642,3291,1003,-5505,-14734,897,2019
4464,1212,1933,2993,1015,-4436,-12992,416,1831
4464,2232,-2417,-264,-2913,3960,4042,9082,-5762
4464,-349,-2386,-219,-3961,2438,3389,11087,-3125
4464,3965,-1471,-314,-3526,946,4801,-9126,303
4464,28,-1463,301,-2815,1359,4961,-7570,3272
4464,839,-519,765,-1778,140,1444,-6326,7783
4464,105,-4713,-865,-3139,7099,17049,6088,-307
4464,963,-3602,200,-1744,5132,11073,3557,-1250
4513,-3104,768,86,1425,-734,-11506,525,-4961
4513,-9737,-1580,-521,702,3114,-5318,590,-745
4513,-10633,1560,2106,3419,-2821,-17272,181,618
4513,-7768,1314,2052,1241,-6664,-13779,-289,4452
4513,-6851,1431,1751,513,-5842,-11269,-99,4386
4513,-17560,-3518,-478,-1120,4966,8769,-300,2856
4513,-15884,-3544,-80,-498,4474,8096,1116,5959
4513,-10141,-2309,481,382,2622,2055,-895,7175
4513,-17,-1648,-488,-2084,1749,3264,3151,1784
4513,-1438,-1073,-275,-1462,1184,1730,3373,5
4562,-2508,1284,2645,1465,-3577,-10161,1069,2724
4562,-1282,-2187,99,-934,3467,4590,1478,4738
4562,-1548,-429,-21,273,1905,206,1559,4360
4562,4583,-574,-642,-879,2787,2707,4855,-7461
4562,8287,127,-1087,-948,2106,2182,3345,-5429
4562,10894,3335,1448,2662,-4819,-20089,-882,-10056
4562,7008,2287,1382,1958,-4007,-16281,570,-5315
4562,1448,2084,1519,1679,-4300,-15433,612,3603
4562,3638,-1247,-2321,-1868,2728,6618,1118,-773
4562,5680,-344,-1801,-1206,2000,4389,732,-536
4611,-8841,5011,2070,3462,-8832,-20783,-1480,6914
4611,-5790,2853,1225,1826,-6146,-13208,-3513,2371
4611,-3456,2377,1423,2156,-6052,-13924,-4989,1280
4611,8280,-211,-4301,-4090,4601,15142,5925,-9736
4611,1062,-133,-4122,-4055,3086,12822,4578,-6269
4611,658,-1123,-1016,-1261,3860,6427,3318,-4023
4611,110,-624,-1703,-1248,3219,6001,3710,-3068
4611,-1493,95,-2237,-689,1377,3235,3100,-1683
4611,3318,2201,828,1673,-4249,-10180,-295,-2499
4611,4167,2226,596,1570,-3868,-9072,-199,-2775
4660,312,673,-677,680,-2076,-3103,-8713,2066
4660,-1478,139,-293,735,-267,-2855,-9495,2688
4660,390,3498,1710,2536,-6189,-16432,-8005,1773
4660,-4613,-680,-1922,-580,1323,9226,7922,-62
4660,-1692,3251,862,2548,-5783,-11164,4815,1353
4660,-9576,-4050,-1737,-1178,7226,12136,-3765,7319
4660,-5748,-3222,-2371,-2189,5040,10962,-3337,4773
4660,-4511,-2197,-2264,-2192,3841,8828,-665,774
4660,-894,-1300,-1848,-732,3389,7386,4647,545
4660,1249,-817,-1444,64,2580,5286,4570,639
4709,3667,2408,-33,2172,-3475,-11397,-564,-4325
4709,2991,-928,-2800,-749,3097,5226,790,-4020
4709,769,-984,-2889,-507,2966,4616,842,-2409
4709,-7870,-443,-2656,-323,1980,2271,-2348,2081
4709,-5496,60,-2461,400,1145,279,-2405,496
4709,4842,1652,-1625,630,-990,-3307,2747,-6340
4709,2198,5177,1066,2924,-9130,-20562,460,-2164
4709,121,4683,1704,2635,-9450,-20897,-829,-195
4709,-758,-1431,-2829,-1163,3898,6658,2696,-3296
4709,989,-872,-2338,-447,2960,4077,1747,-2925
4758,-8369,3525,2251,4885,-7343,-21885,-1746,-393
4758,-4584,2119,1456,3455,-4283,-14789,-1594,1288
4758,-156,2486,1016,3156,-4085,-13636,-1389,2217
4758,4866,-590,-3163,-1279,3663,8538,1462,-5580
4758,2359,-3754,-4905,-3730,9557,22108,2600,-4895
4758,-1447,-810,-3039,-556,3132,5842,1142,-1013
4758,-2147,-1029,-2679,-1236,2495,5458,1026,-780
4758,-3428,-665,-2113,-1229,1533,3394,904,-1886
4758,-442,2262,-955,1987,-1542,-6456,161,-2829
4758,1555,5400,1256,3305,-8284,-20193,-920,-2229
4806,5274,4422,-431,2582,-4647,-12862,2,-3488
4806,1978,2637,-1181,929,-1685,-5237,141,-2375
4806,1161,71,-2541,-545,2587,4482,581,-2045
4806,1416,-134,-3108,-585,3265,5456,572,-3433
4806,373,183,-3012,-244,2759,4433,533,-3286
4806,695,6913,1484,5437,-10714,-26522,-2287,-1907
4806,-188,3834,-490,2347,-5485,-12380,-1372,-2193
4806,372,-851,-3229,-1249,3216,7770,202,-2984
4806,1513,-1029,-3177,-814,4723,5218,-24751,-478
4806,3350,683,-4435,-2283,2424,6351,-15400,85
4853,87,6091,782,5217,-6460,-21740,544,-3290
4853,-1816,4220,513,4739,-3422,-15686,922,-3340
4853,-1778,3880,-209,4183,-2604,-12529,1325,-2919
4853,1962,-562,-5229,-1493,5667,11808,5700,-5621
4853,1627,82,-4807,-1101,3982,7817,6033,-4804
4853,-6153,633,-5184,-302,3775,7054,-185,-4600
4853,-4611,761,-4794,244,3359,4526,209,-4274
4853,-551,1761,-5613,-1807,2029,6750,1853,-3499
4853,1620,479,-6754,-1762,5121,12385,2417,-3755
4853,1746,1541,-5870,-953,2662,6634,2183,-3553
4902,-449,6419,-2205,3548,-6419,-16776,-303,-2306
4902,-2115,3680,-3754,1169,-1892,-4832,245,-2512
4902,-1369,3568,-3427,1837,-1543,-5425,319,-2274
4902,182,5361,-2968,3020,-4729,-11661,-335,-2352
4902,301,5220,-2438,3443,-4344,-12230,-515,-2089
4902,-1422,743,-6671,347,4781,9001,1385,-3141
4902,-197,964,-6257,465,4235,7644,1298,-2934
4902,-84,1634,-5643,1794,3919,4701,868,-3237
4902,370,2360,-5663,2029,2687,2639,685,-3109
4902,-805,3078,-5142,2196,992,-697,399,-2992
4951,-225,5496,-4537,4425,-2537,-9363,-853,-2672
4951,-1185,1111,-6162,1977,4294,6418,154,-3109
4951,296,1733,-5278,2992,3046,2582,20,-2739
4951,455,2795,-6460,1209,2431,3598,644,-2055
4951,57,3361,-6090,1347,1168,1231,322,-3460
4951,-2940,6307,-3726,4882,-4517,-13638,-1699,-1323
4951,-783,6435,-4110,4291,-5168,-13087,-1682,-1460
4951,-2785,2308,-8012,60,2854,7900,910,-3864
4951,-3172,1739,-7017,-58,2738,6779,630,-3353
4951,-2843,1632,-5904,1008,2236,3701,176,-3033
4999,-110,5067,-4505,3994,-1763,-8331,-796,-3303
4999,-1262,8628,-2134,6461,-8228,-23282,-1992,-2776
4999,-1317,8573,-2237,6333,-8320,-22286,-2067,-2674
4999,-1139,-712,-9082,-934,8735,19127,998,-4303
4999,-1054,189,-8182,-804,6371,14494,940,-4043
4999,-1420,2666,-7423,1941,2810,4478,234,-4072
4999,-1473,2807,-6354,2062,1595,1866,-73,-3681
4999,738,7557,-3957,4867,-6672,-16701,-1789,-3328
4999,611,6717,-3997,4739,-5230,-13827,-1584,-3153
4999,-733,6961,-3445,5187,-5822,-15520,-1762,-2963
5048,-184,3664,-7298,2603,1592,2216,-441,-3936
5048,1232,2182,-7719,1648,3583,6923,84,-3788
5048,-89,5833,-4732,4411,-3991,-10861,-1071,-3067
5048,-464,2738,-7516,1925,3248,4260,-142,-3725
5048,-480,2765,-6997,1846,2810,3458,-203,-3443
5048,9670,1809,-7676,574,5752,8644,-556,-3980
5048,9400,2333,-7025,473,3712,6076,-131,-5451
5048,-4051,2905,-7881,1433,2252,2773,-353,-2382
5048,-3862,3080,-7504,1363,1684,2115,-301,-2460
5048,-3113,3826,-6565,2034,141,-1546,-569,-2657
5096,810,7815,-5492,3847,-6206,-14903,-1919,-3519
5096,114,10678,-2683,6604,-12200,-29807,-3038,-2584
5096,-436,9769,-2563,6003,-10978,-26568,-3005,-2419
5096,-151,2915,-8721,99,3950,7069,549,-4796
5096,1397,2912,-7953,495,3295,5107,414,-4531
5096,-1169,2965,-8144,1327,3381,4275,-121,-4394
5096,-1064,2634,-7575,1417,3328,3727,-177,-4112
5096,961,-606,-10496,159,9886,18196,320,-4853
5096,807,664,-9463,-753,6177,12671,348,-4517
5096,652,2100,-8244,-812,2859,6876,203,-4163
5145,-1006,7540,-6028,4917,-4777,-15329,-1705,-3891
5145,698,6721,-5941,3856,-3859,-11835,-1618,-3789
5145,750,3190,-7780,1249,2030,2666,-512,-3988
5145,609,11176,-3365,7936,-12400,-32130,-3336,-3191
5145,-1205,10774,-3001,7446,-12423,-31072,-3397,-3002
5145,-1302,1890,-9782,1595,5548,8498,-108,-4444
5145,-1065,1978,-9238,1414,4987,7782,-17,-4378
5145,370,2784,-9438,1943,3614,5068,-159,-4389
5145,-648,2957,-8658,2002,3227,3579,-353,-4136
5145,364,3572,-7684,2399,1640,-21,-621,-3764
5194,-1891,7520,-6627,6306,-3398,-14414,-1990,-1696
5194,-5196,3231,-9004,3448,3855,3375,-873,-2044
5194,-4205,2401,-8883,3531,4711,4985,-543,-2317
5194,319,3608,-9777,2610,3420,3750,-443,-4449
5194,-1137,3423,-9089,2585,2972,3112,-528,-4101
5194,1232,11450,-3550,9138,-12262,-33670,-3641,-3422
5194,-373,10522,-3855,7835,-11278,-29645,-3452,-3242
5194,-868,2089,-10923,2089,4369,8180,-238,-4815
5194,732,2007,-10117,1918,4012,7311,-246,-4557
5194,1006,2444,-8653,2575,2954,3300,-471,-4254
5243,-302,8916,-6336,7295,-7374,-20785,-2576,-4018
5243,827,6864,-6758,5771,-4433,-13565,-2033,-3933
5243,-575,6162,-6459,5334,-3800,-12103,-1883,-3703
5243,560,1963,-10130,2291,6565,10320,1,-4678
5243,-1292,1800,-9374,2592,6090,8753,-130,-4365
5243,296,3458,-9415,3204,4284,5952,-332,-5096
5243,159,2815,-8548,3540,3816,4077,-423,-4617
5243,-55,6109,-8896,4801,109,-4228,-1775,-4310
5243,295,1821,-10817,1898,7100,12682,-433,-4575
5243,1659,2672,-9484,2944,5305,7645,-623,-4199
5291,139,7289,-6293,7728,-4695,-15516,-2231,-3916
5291,1223,5620,-6605,6201,-2891,-9625,-1956,-3808
5291,932,2627,-7785,4317,1952,1505,-1164,-3819
5291,1941,7848,-5127,8583,-5862,-20433,-2784,-3462
5291,1688,6885,-5310,7351,-4355,-15666,-2457,-3327
5291,1310,2016,-11661,3255,2931,10131,-517,-4332
5291,81,2326,-10642,3230,2576,8811,-552,-4184
5291,1644,4041,-9997,5582,4658,4512,-827,-5278
5291,1634,4222,-9294,5601,3902,2978,-724,-5083
5291,-1800,6577,-7477,7576,-2393,-9813,-2522,-3449
5340,238,2602,-10383,5910,6750,8077,-1180,-3237
5340,496,3383,-9529,6299,5093,4274,-1096,-3326
5340,2092,2766,-14123,7686,4899,2931,-1198,-4595
5340,1444,1990,-13180,7341,4237,2327,-1197,-4413
5340,155,2309,-11516,7394,2305,-1084,-1310,-4063
5340,1380,11032,-5206,11783,-6635,-22032,-3287,-3666
5340,1214,10012,-6251,9583,-4872,-15629,-2857,-3775
5340,-222,1572,-9333,7368,6418,6247,-936,-5114
5340,1395,2135,-8324,7481,5174,3417,-994,-4672
5340,2224,-3424,-2355,7755,2844,3094,-791,-5675
5389,-923,11772,-7249,13190,-5731,-22965,-3686,-3630
5389,747,11244,-8019,11982,-5758,-21248,-3520,-3607
5389,-2,7627,-6439,11223,-2560,-13579,-3381,-4519
5389,1053,3354,-8823,7955,4262,4358,-2007,-4695
5389,-519,302,-10491,5324,8636,16547,-846,-4835
5389,1625,2523,-11340,10281,6905,5092,-1279,-5388
5389,191,2670,-10209,9929,7121,3808,-1142,-5093
5389,531,7412,-8925,13301,-7623,-19128,-3415,-4335
5389,-1026,7018,-9998,11415,-4426,-13791,-2969,-4194
5389,400,2782,-7082,10389,5091,5159,-1625,-5357
5438,1162,5891,-5123,12329,1232,-7219,-2644,-4965
5438,585,2575,-6627,9796,6817,6156,-1569,-4984
5438,620,3617,-5555,12238,8541,2802,-1814,-5429
5438,-631,3777,-5827,11704,7682,1986,-1782,-5227
5438,922,4066,-5490,11839,5937,-1879,-1869,-4800
5438,-1097,-570,-5576,10699,8948,12989,-1444,-5983
5438,-437,484,-3594,10839,7332,8580,-1462,-5677
5438,-1742,1933,-4286,13835,6735,1341,-2170,-5616
5438,-1588,2058,-3676,13095,6991,922,-1964,-5411
5438,903,8654,-7066,17654,-4984,-20956,-4093,-5337
5486,-206,7054,-5694,15842,-2940,-14097,-3621,-5836
5486,1195,7030,-3867,15475,-4105,-15951,-3595,-5532
5486,-1033,914,-6855,14095,4939,2632,-2324,-6739
5486,-25,1275,-6361,13335,4556,2306,-2203,-6493
5486,-1462,2062,-5722,13031,2826,269,-2232,-6164
5486,811,3542,-10188,13744,680,640,-2655,-5903
5486,394,3849,-10507,13407,12,55,-2577,-5565
5486,171,-614,-4439,12769,11634,14399,-2072,-6930
5486,-1566,-239,-2778,13034,8637,10028,-1941,-6578
5486,-712,2382,-5245,16348,3049,-761,-2909,-7206
5535,-931,3412,351,16942,10471,-2098,-3118,-7308
5535,1183,3042,-454,15352,11059,-743,-2446,-7187
5535,-1289,6824,-4024,19067,-591,-14990,-4122,-7525
5535,-798,10292,-766,21199,-8649,-32281,-5255,-6610
5535,1204,11927,748,21466,-12633,-39667,-5864,-5887
5535,-744,499,-6905,16407,8280,4230,-2713,-7838
5535,572,625,-6935,15820,7078,3219,-2637,-7354
5535,-74,3727,-15360,16181,-3171,2351,-2338,-9098
5535,376,3624,-14078,15987,-463,706,-2308,-8664
5535,-383,2342,-3032,17700,8455,4293,-2654,-9504
5584,-663,3194,-2140,20158,9089,-8035,-4014,-8319
5584,-2262,305,-4932,17538,12766,3117,-3057,-8111
5584,3601,4446,-1146,19120,8425,886,-2770,-11378
5584,4645,4605,-5236,18364,6003,472,-2588,-10984
5584,2966,4927,-8183,17970,5878,-1558,-2679,-10517
5584,94,12153,-391,25229,-7164,-36217,-6222,-7503
5584,-218,11739,40,24053,-7308,-35558,-6260,-7182
5584,-35,638,2922,20161,20716,4219,-3306,-9730
5584,-138,1140,2435,19157,16659,3182,-3113,-9159
5584,-270,1805,-1535,19916,13635,2502,-3045,-11046
5633,-957,9942,-1533,24697,-1217,-25359,-5302,-10054
5633,-598,8090,-850,22785,3511,-19176,-4820,-9541
5633,991,6149,-1024,20913,6351,-13471,-4318,-9136
5633,603,-585,-674,18546,13981,6141,-3330,-10614
5633,-499,-113,-768,17758,11609,5051,-3146,-10077
5633,1802,2480,-5717,20081,12863,3625,-3226,-11832
5633,1331,3074,-7355,18439,7556,1871,-3062,-11170
5633,77,8984,-1843,26233,-8128,-36426,-6664,-10706
5633,-1176,5770,-2173,22293,713,-19288,-5499,-10477
5633,-1691,109,-2746,20531,20879,5463,-3413,-12424
5682,729,2152,-3181,20414,21529,1325,-3693,-12582
5682,-751,653,-915,18429,24241,7233,-3038,-12043
5682,-1112,839,1322,18203,22991,4036,-3082,-11162
5682,-236,6300,-3058,21832,8028,-14142,-4300,-12056
5682,1183,5602,-2740,20397,8736,-12800,-4084,-11387
5682,-940,-397,-2654,19778,18069,7503,-3098,-13022
5682,-474,246,-2814,18627,16037,5573,-2875,-12477
5682,1873,2058,-5042,20910,15336,2741,-3378,-14000
5682,2165,2191,-7147,19500,12833,2334,-3192,-13355
5682,1846,2617,-7890,18601,9942,-1380,-3246,-12496
5731,-1720,4390,-3771,20735,4059,-8655,-4180,-13236
5731,-1096,792,-3423,17545,11334,5399,-3002,-12942
5731,562,2137,-3,18234,9521,-2200,-3221,-12160
5731,931,1735,-2050,19265,12758,1520,-3273,-13694
5731,897,2206,-1214,18379,12210,802,-3111,-13058
5731,-105,4241,2309,23138,2412,-17428,-5210,-13729
5731,-930,4498,2918,22471,3503,-17534,-4984,-13114
5731,328,878,-5030,18170,12103,4913,-3228,-15621
5731,183,1257,-5407,16940,10111,4241,-2946,-15048
5731,-1069,2671,-5549,16005,7046,772,-2830,-14277
5779,813,4569,-3771,20658,1728,-13974,-4525,-15468
5779,379,7437,-1757,21384,-5210,-26708,-5349,-14297
5779,-922,7416,-2724,19600,-6692,-24602,-5143,-13627
5779,-757,-623,-11460,13672,15379,16943,-2210,-16329
5779,-989,-89,-7819,13756,13561,11717,-2273,-15427
5779,-1368,1586,-3019,16522,11996,2231,-3025,-16704
5779,447,1972,-5204,15884,9696,1628,-2788,-15964
5779,-740,6095,-2803,18766,-1378,-18629,-4534,-17146
5779,453,5390,-1963,18035,-728,-17247,-4295,-16197
5779,-529,5479,-1164,17647,-1409,-18636,-4250,-15251
5828,-43,594,-4631,16011,8154,1020,-3274,-17956
5828,-1295,-283,-4854,14067,8903,4253,-2728,-17156
5828,-1271,4071,-1615,16591,-797,-15563,-3795,-15723
5828,-1639,-52,-4816,15136,8148,2314,-3058,-17771
5828,-1741,252,-4370,14641,7178,689,-3060,-16771
5828,-254,-1596,-7238,12556,12203,13770,-2105,-19490
5828,1281,-876,-6359,12484,11447,10168,-2129,-18432
5828,-1566,41,-3802,15446,8660,94,-3235,-18606
5828,-1630,545,-4415,14379,7192,-1162,-3025,-17672
5828,-983,1507,-4185,13746,4844,-4358,-2994,-16676
5876,257,5044,-4462,16773,-5704,-16294,-4659,-17807
5876,-1460,5403,-2856,16172,-6840,-19253,-4831,-16826
5876,-1444,1845,-5363,12654,4936,1187,-2739,-19081
5876,-11,1948,-4793,12089,4668,665,-2567,-18137
5876,624,3135,-10628,13393,-154,-688,-2959,-19262
5876,691,2582,-8898,13145,988,-1199,-2861,-18245
5876,486,2779,-6540,12898,-3,-4417,-2916,-17227
5876,-1501,468,-5299,10853,7409,8343,-2712,-18652
5876,-1351,-546,-5190,10007,9332,11495,-2094,-17806
5876,-37,2214,-5112,12122,-1792,-1847,-3050,-18397
5925,-1250,5503,-4603,13974,2185,-9018,-3397,-18224
5925,13,2397,-4352,11614,7394,1278,-2470,-17407
5925,-1868,8372,-3036,16013,-9810,-25086,-4549,-17880
5925,-1585,11758,-110,17903,-17357,-40753,-5591,-16418
5925,-98,1990,-6264,10022,3035,3401,-2086,-18966
5925,-1469,2068,-6110,9484,2801,2997,-1930,-17948
5925,-157,2500,-6019,9350,1485,912,-2089,-16873
5925,-1754,1970,-4131,11333,2065,-77,-2598,-17541
5925,-311,2251,-5538,10987,2540,-604,-2566,-16530
5925,265,2247,-7268,8992,1642,5347,-1983,-18258
5974,339,6769,-3986,12946,-6904,-16181,-3392,-17126
5974,-1195,2651,-6411,9605,635,1663,-2094,-16698
5974,-1587,2576,-6363,10574,2438,27,-2412,-17466
5974,-1159,2546,-5908,10137,2410,-463,-2430,-16306
5974,-1629,8449,-2699,14620,-12443,-28498,-4373,-16877
5974,-412,10767,62,14988,-16669,-37121,-4789,-15812
5974,1170,9836,1231,13798,-14432,-32793,-4545,-14855
5974,49,854,-8443,7937,2463,7367,-1276,-16505
5974,-1189,993,-7144,8253,2473,5468,-1275,-15686
5974,-1590,1355,-6938,8794,4579,3897,-1656,-16289
6023,-1076,7123,-2875,13108,-7780,-21605,-3931,-15027
6023,405,5501,-3535,11241,-4977,-14601,-3339,-14355
6023,-304,-451,-8288,6918,5803,9791,-1295,-15934
6023,-1729,-286,-7597,7014,5189,8149,-1435,-15023
6023,-530,590,-7195,7373,2494,3588,-1717,-14017
6023,773,1437,-4458,7405,5197,4642,-1401,-15252
6023,482,1507,-3902,7294,3674,2812,-1507,-14321
6023,-2182,4986,-2865,11699,951,-16547,-3784,-14073
6023,-2117,1860,-4858,9026,7058,-2674,-2819,-13633
6023,404,1017,-5666,7032,3721,4948,-1397,-15552
6071,152,5364,-5800,10673,-9726,-16931,-3186,-14307
6071,78,3616,-6916,7676,-6383,-6531,-2518,-13833
6071,-1806,4105,-4086,9921,-1681,-9310,-2588,-14483
6071,-1294,6422,-2068,11157,-7430,-20291,-3278,-13515
6071,-1003,-891,-9085,6159,7004,11768,-808,-15477
6071,768,-684,-8332,5745,6510,10429,-732,-14680
6071,583,-113,-7625,5862,4943,7724,-856,-13749
6071,101,1274,-7850,6346,3511,5363,-1376,-13976
6071,-1682,1214,-7627,6120,2824,4843,-1307,-13469
6071,-1306,4123,-4639,9006,-5369,-11446,-2773,-13519
6120,-277,2734,-6046,7379,-2215,-4041,-1982,-13399
6120,-44,955,-6216,6625,2096,1903,-1311,-12927
6120,711,1273,-10165,5690,138,4463,-930,-14391
6120,-452,1365,-10179,5465,-678,3347,-922,-13434
6120,233,1772,-8436,5813,-2097,-606,-1302,-12320
6120,-1146,6218,-1925,9607,-8550,-20720,-3285,-11993
6120,227,4625,-2183,8671,-6257,-15761,-2933,-11399
6120,-538,-578,-9144,5007,351,8802,-1008,-12520
6120,-1579,-427,-8620,5156,1086,7433,-1168,-11819
6120,-1675,625,-8987,5550,-742,3633,-1329,-12344
6169,545,6887,-3634,10484,-10389,-23294,-3278,-11344
6169,251,6354,-3319,9249,-7783,-20397,-3118,-10689
6169,-1236,-3779,-2283,2163,13273,21633,201,-12541
6169,-362,-2336,-1717,2873,10751,15771,-47,-11917
6169,1091,-941,-1067,3952,8694,9369,-438,-11024
6169,580,547,-7087,6564,3544,3588,-1323,-10870
6169,412,939,-6198,6399,2643,1573,-1480,-10169
6169,348,5495,-4352,8753,-11285,-19488,-3131,-9749
6169,388,4581,-4249,7798,-8951,-15318,-2786,-9314
6169,348,531,-6675,4516,3051,5515,-1113,-10175
6218,-1875,2446,-4582,6283,-2737,-5398,-2155,-9391
6218,-1462,-460,-5933,4013,2534,6011,-1312,-9069
6218,921,1281,-7401,4055,-993,4115,-922,-10460
6218,-332,1041,-6977,4154,-674,3787,-841,-9633
6218,461,945,-6080,4016,-1318,1519,-1001,-8805
6218,-195,-1097,-6111,4739,4531,7874,-680,-8405
6218,304,174,-5648,5098,2158,3912,-752,-7964
6218,-1806,767,-6894,4287,-2830,2228,-1072,-7905
6218,-1577,958,-6412,4249,-3724,1225,-1131,-7393
6218,-1440,6299,-3597,7665,-12349,-19244,-2479,-7241
6266,-1204,3575,-1688,7402,-7974,-14376,-2424,-6724
6266,-1022,6884,393,9647,-14962,-28833,-3377,-5858
6266,263,-286,-5625,4323,3062,5714,-745,-7191
6266,-196,-240,-5386,4236,2405,4677,-740,-6701
6266,-1504,566,-4652,4717,121,465,-1021,-6165
6266,-186,538,-3161,3954,2801,4246,-507,-6797
6266,-693,684,-3243,4166,675,2798,-646,-6260
6266,-1503,-3847,-5234,1425,8698,18839,-302,-6137
6266,-1135,-3020,-4348,1686,8912,14800,-184,-5844
6266,168,288,-1083,5270,-1821,1056,-1355,-5739
6315,-232,1468,-8799,3380,-991,1414,-1174,-5863
6315,791,1887,-9258,3510,-5733,25,-1192,-5236
6315,1199,4576,-3199,7040,-7811,-15182,-2276,-4832
6315,1348,8538,-778,9995,-18253,-33516,-3630,-3969
6315,1226,9363,-619,9630,-21410,-35581,-3756,-3717
6315,-830,53,-5042,2916,1931,7009,-209,-5240
6315,1079,157,-4607,2821,1747,6040,-257,-5031
6315,985,377,-4720,3051,39,4271,-384,-5084
6315,-473,542,-4212,3108,-837,2352,-511,-4772
6315,-1751,-509,-5478,2763,-2535,6732,-418,-4285
6364,1037,4794,-1690,6900,-11557,-17391,-2224,-3673
6364,754,1577,-3469,4007,-4164,-2480,-1246,-3789
6364,-1384,-159,-3992,4018,1076,4294,-472,-4122
6364,-1103,-48,-3687,3698,792,3431,-550,-3899
6364,-894,723,-2880,4131,-1036,-216,-758,-3564
6364,1039,8294,2345,10120,-20692,-35729,-3723,-2492
6364,-545,7621,2476,9585,-19229,-33123,-3693,-2342
6364,-1586,-1894,-4804,1766,-4351,7982,-686,-3458
6364,-1448,-1417,-3728,1930,-3473,5497,-869,-3098
6364,18,-79,-6,2757,5085,6595,-128,-4111
6413,1648,5617,865,7526,-12967,-21734,-2336,-3005
6413,1353,3987,533,6030,-9560,-14470,-1883,-2942
6413,1301,-1308,-5496,2030,3649,12063,219,-3734
6413,1507,-1232,-5239,2055,3360,10907,171,-3601
6413,1018,-1325,-4494,2317,2250,8603,79,-3368
6413,401,-1474,-3333,3526,2199,6292,-512,-2979
6413,535,-849,-2992,3263,749,4228,-541,-2792
6413,-550,3472,-3250,4026,-8795,-10427,-1905,-2230
6413,-447,-886,-5680,617,5037,10275,-277,-2723
6413,-407,17,-5135,2328,-1655,4803,-273,-2796
6461,-597,2836,-1915,4832,-7560,-8852,-1295,-2133
6461,-341,4066,-502,5813,-9848,-14312,-1826,-1934
6461,887,705,-2865,3224,-2542,-288,-679,-2202
6461,-447,4599,354,6103,-10809,-17627,-1885,-1606
6461,561,4569,470,5673,-10606,-16798,-1867,-1496
6461,975,-1898,-4959,1229,2142,11072,343,-2309
6461,876,-1522,-3045,3267,1820,6251,-387,-2027
6461,1128,-1338,-3192,2848,1377,5677,-307,-2022
6461,974,-150,-3107,2840,-526,2175,-457,-1891
6461,-429,2719,-726,3769,-7105,-7751,-1271,-1035
6510,1243,363,-7100,2048,-3865,6902,-308,-1254
6510,1025,-452,-6575,1643,-806,9360,2,-1173
6510,-897,-194,-3958,1420,-1641,5016,-28,-1193
6510,730,195,-3856,1228,-2268,4112,-89,-1129
6510,921,5461,-857,5254,-16887,-20897,-2085,-273
6510,868,4527,-1538,4486,-15154,-16660,-1972,-296
6510,-1096,4354,-1179,4743,-14334,-16604,-1956,-186
6510,-809,-761,-6909,209,-3998,9503,477,-960
6510,-856,-205,-5004,896,-3479,6127,161,-898
6510,1561,-491,-3965,770,-1061,6214,41,-584
6559,526,5119,1432,6349,-14053,-22316,-2448,802
6559,-940,3468,634,5075,-10660,-15318,-2078,598
6559,-874,-3950,-4688,-2514,9567,23515,1082,-600
6559,-554,-2888,-3954,-1390,7328,18038,768,-516
6559,-545,-563,-3190,1942,2416,5960,71,126
6559,760,-669,-2478,1995,1425,5277,-93,263
6559,-329,-515,-2159,2376,354,3479,-212,290
6559,602,3744,3348,5163,-8473,-14992,-1457,769
6559,-1014,3804,1692,4847,-10155,-14683,-1350,882
6559,-695,-652,-3350,1742,928,6915,368,468
6608,-443,3742,-1193,3835,-10106,-11096,-1046,1019
6608,-144,-350,-3525,694,-1122,6449,95,511
6608,-501,-140,-3507,1158,-1632,4971,163,419
6608,-423,186,-3209,1223,-2127,3823,181,373
6608,1001,-2972,-5021,-424,4096,16436,865,125
6608,-147,-2305,-4239,302,2797,12843,722,463
6608,755,-1628,-3097,1009,1141,8330,318,836
6608,960,-110,-2677,1175,-2882,2501,-135,1093
6608,-223,-95,-2287,1319,-2630,1807,-181,1115
6608,-687,4046,-373,4885,-14087,-17352,-1848,2084
6656,-365,3525,86,3865,-14210,-13156,-1525,1841
6656,7,4412,338,3996,-13918,-14772,-1554,1684
6656,1268,-484,-4117,1274,562,4692,-19,1197
6656,1391,38,-4259,1533,230,1729,-238,1352
6656,-451,-300,-3448,-4,-6237,2921,-59,1623
6656,-852,-334,-3382,291,-7532,1928,-163,1552
6656,-388,328,-2425,1179,-9411,-1927,-462,1547
6656,2023,-2994,-5916,-1844,1070,17394,793,905
6656,1669,-1857,-3495,-930,1344,11674,555,1002
6656,-216,330,-2760,436,-1349,2119,118,1532
6705,-333,1504,-564,1683,-4341,-3547,-589,1919
6705,-594,-345,-1498,819,-88,3542,-47,1651
6705,1199,3091,731,3049,-7876,-11981,-1422,2476
6705,-253,6263,2756,5552,-14998,-26414,-2264,2686
6705,-560,-896,-2933,801,2877,5295,-85,2282
6705,1202,-409,-2526,552,1079,3785,10,2224
6705,75,627,-1693,922,-670,266,-100,2005
6705,169,419,-3929,1231,-2416,2242,-279,2357
6705,1708,1439,-5919,459,-5078,407,-170,2170
6705,1240,-686,-2510,86,433,5118,105,2402
6753,-239,3455,3632,3814,-7642,-16806,-1594,3000
6753,-464,1730,2312,1294,-2737,-6882,-942,2506
6753,1465,305,-5037,-603,-3737,3765,23,2666
6753,251,506,-4423,-329,-3813,2629,10,2534
6753,825,2218,-1252,1878,-12406,-11945,-1438,3390
6753,-518,2150,-1278,1463,-11296,-10509,-1202,3142
6753,1021,2768,285,2182,-10045,-13254,-1402,3059
6753,-334,-194,-2689,-167,3141,6475,234,2708
6753,197,651,-1719,828,1442,2156,-164,2663
6753,-193,162,-1766,1000,2093,3235,-98,2905
6801,-71,4430,1407,4127,-9302,-16884,-1380,3673
6801,554,5992,2260,5082,-12647,-22687,-2068,3640
6801,-407,-2543,-5314,-561,2711,11851,141,3143
6801,-354,-1928,-3872,-125,1741,8545,-52,3149
6801,124,-416,-2791,-408,-509,5451,230,3035
6801,1568,-402,-2278,-167,416,4636,197,2929
6801,1955,3592,714,2728,-7830,-12608,-1380,3788
6801,323,3308,422,2498,-7492,-11572,-1268,3542
6801,1667,2951,487,2443,-7107,-11061,-1229,3451
6801,1941,-801,-2284,-433,1937,6151,304,3241
6850,-65,2415,-372,2165,-4927,-7712,-959,3565
6850,1824,31,-1811,496,1023,2004,-39,3226
6850,-415,-3,-8305,-115,-6495,5387,37,3746
6850,-479,595,-6831,128,-6130,2414,-70,3548
6850,1785,-1252,-2496,-474,4932,8853,371,3258
6850,188,-1065,-2247,-364,4190,7793,302,3086
6850,-39,-644,-1541,36,2910,5067,155,2962
6850,1442,-261,-579,688,3800,3158,-153,3408
6850,85,366,-190,727,1459,-26,-221,3253
6850,2112,3156,615,1497,-7383,-11299,-1152,4148
6898,1855,-19,62,-46,11,1739,-585,3803
6898,1953,-2254,-2004,-2192,5873,13049,503,3115
6898,-104,-28,-1283,-3,5651,3944,142,3737
6898,-403,-119,-1278,250,4327,3033,26,3534
6898,1415,145,-810,242,2508,2109,-103,3902
6898,-430,428,-558,650,1533,257,-244,3839
6898,134,-2143,126,-986,9313,9495,428,3904
6898,1765,-1584,271,-564,7392,7241,254,3653
6898,1816,-602,737,190,4172,2526,-94,3621
6898,-80,588,-2501,-439,351,1113,-235,4177
6947,-480,1041,-2596,230,-3148,-642,-462,4223
6947,-204,245,-2931,-347,-756,2651,-46,3882
6947,1297,3751,145,2485,-12575,-16247,-1926,4964
6947,1266,6241,2161,4348,-18745,-28390,-2706,5130
6947,-3,-504,-4223,-1377,1828,5157,143,4822
6947,-31,43,-4339,-1080,1088,3458,22,4359
6947,1695,629,-2849,-1732,-1471,3000,428,3991
6947,-16,375,-2382,-1402,-649,2569,316,3973
6947,755,612,-1415,-677,-1508,-698,-121,4279
6947,-300,-746,-876,-456,2522,3571,81,4351
6996,903,2424,1706,1522,-3939,-9153,-1117,4909
6996,-440,-499,-156,-755,3365,4175,-78,4281
6996,1114,209,-2253,-706,328,2079,-315,4472
6996,-286,440,-2362,-477,-809,951,-316,4191
6996,-421,2018,2936,932,-3054,-9604,-1612,5099
6996,1480,-1793,323,-2207,7100,8735,-77,4252
6996,-198,18,-1393,-810,2371,2263,-56,4841
6996,1389,229,-932,-736,5278,1582,38,4583
6996,-131,992,189,108,6504,-2362,-277,4475
6996,1030,398,-2341,-995,-1217,945,-13,4889
7044,1275,4365,2315,2331,-10348,-17900,-1621,5322
7044,-168,3408,1835,1915,-8406,-14159,-1345,4951
7044,1536,-1083,-2363,-1669,3641,7107,343,5441
7044,6,-541,-1881,-910,2362,4168,162,5005
7044,-547,78,-2249,-1217,-767,2795,-8,5275
7044,670,450,-2436,-1200,-1416,1684,-62,4999
7044,-766,-1788,-2256,-3656,2360,10277,247,5386
7044,-256,-1265,-2051,-2505,1907,7756,252,5124
7044,1428,-535,-1529,-1306,552,4012,44,4921
7044,1696,194,-1568,-704,-1685,258,-276,5325
7093,1048,4545,2050,1863,-8389,-18000,-1810,6202
7093,-584,576,-991,-1065,-246,267,-557,5344
7093,-328,4026,1034,1456,-8813,-15039,-1472,5828
7093,382,4106,1223,1650,-9153,-15699,-1589,5507
7093,238,-106,-3157,-1971,3580,6051,303,5420
7093,-172,10,-3013,-1557,20,4699,233,5164
7093,1900,14,-887,-273,6045,2508,-22,5802
7093,2092,-31,761,-66,7342,2236,0,5322
7093,1903,211,1756,129,5520,991,103,4930
7093,-590,-1294,-2055,-2541,2815,6974,278,5757
7142,1607,738,-842,-1327,-2138,-1320,-445,5759
7142,1334,-895,-1937,-2210,1682,5682,178,5281
7142,-791,572,-1797,-1522,292,1639,28,5854
7142,-650,1333,-1541,-819,-740,-1062,-266,5584
7142,1500,4406,240,321,-10258,-15049,-1152,6466
7142,1316,3946,219,919,-8493,-14256,-1210,6141
7142,813,4155,466,1601,-9074,-16148,-1521,6025
7142,920,-415,-2454,-1634,1442,4972,258,5695
7142,-556,-175,-1809,-1557,1257,3528,177,5445
7142,1235,198,-1858,-1496,1187,2880,271,5713
7191,-130,6325,2055,2982,-13831,-24597,-1983,6468
7191,-306,4753,1458,2072,-10838,-18457,-1700,6075
7191,1414,-3811,-3041,-3556,9292,16851,859,5416
7191,1402,-3130,-2402,-2687,8088,13477,680,5220
7191,790,-28,-5375,-2337,-985,5348,284,5805
7191,-705,-433,-3431,-1604,445,3816,267,5432
7191,-137,3410,1583,1358,-6447,-13157,-1227,6526
7191,870,2850,1625,1108,-5560,-11577,-1079,5993
7191,-616,-591,-2082,-1775,2047,4824,369,6006
7191,621,-375,-1410,-1126,1880,3299,144,5689
7240,-663,332,-942,-1432,-922,1394,-133,5829
7240,856,-384,-1344,-1129,789,3656,132,5858
7240,-192,-231,-699,-921,835,2861,132,5532
7240,1130,551,78,-223,-1470,-1389,-200,5315
7240,1283,-1085,-2649,-2765,7978,9729,794,5524
7240,-519,-1105,-1949,-2074,6535,7721,460,5360
7240,-385,-49,-1571,-1689,376,2936,233,6038
7240,-270,357,-1424,-1297,-1234,1120,168,5717
7240,10,3621,1397,1470,-8702,-15031,-1331,6768
7240,1365,3239,1248,1520,-7607,-13434,-1261,6461
7288,-141,3053,574,839,-6379,-11454,-829,6136
7288,-401,-698,-1795,-2280,4693,4102,175,6360
7288,-691,-417,-1249,-1833,3427,3097,60,6040
7288,-392,320,178,-898,-549,-932,-229,5838
7288,74,15,-1028,-1569,1430,3300,397,5971
7288,1420,527,-1341,-1070,543,1889,298,5691
7288,1226,-1706,-2480,-2713,4371,9322,605,6076
7288,-208,-1068,-1873,-1877,3138,6290,447,5784
7288,1165,-364,-1410,-1926,-488,2589,226,6238
7288,-615,-91,-995,-1816,916,2134,270,5855
7337,-893,1737,-214,3,-4667,-7304,-937,6354
7337,596,4317,2041,1422,-11573,-18516,-2076,7660
7337,-532,4697,1682,1986,-13339,-19779,-1895,7274
7337,893,6421,2500,2849,-17585,-26644,-2348,6892
7337,209,-1343,-1683,-2011,4758,7868,825,5826
7337,1606,-798,-1504,-1617,4084,6105,674,5536
7337,1121,-996,-2526,-1281,4638,5202,435,6130
7337,-438,-929,-2409,-1409,2300,4813,436,5723
7337,1226,-1231,-261,-1154,5575,6138,531,6019
7337,218,-884,50,-500,6402,5128,539,5618
7386,56,4265,1389,1191,-6986,-14645,-1085,6397
7386,-221,289,-1525,-2613,1089,3654,240,5516
7386,-294,-878,-11,-1820,8425,4342,335,6153
7386,1100,-810,-7,-1670,7351,3680,386,5776
7386,-642,5979,2482,2975,-16528,-25815,-2253,7293
7386,-302,4862,1735,2174,-12706,-19503,-2007,6678
7386,1465,-1539,-2123,-2360,2677,7546,446,6170
7386,1560,-1174,-1941,-2043,2267,6611,388,5803
7386,876,-338,-1361,-1262,310,2813,130,5582
7386,-1082,-753,-1807,-1825,3256,5245,254,6283
7434,1362,3784,801,484,-9132,-14126,-1187,6600
7434,-1120,-1297,-3142,-2849,2322,8413,343,6624
7434,-820,-1085,-4229,-2457,1284,7601,318,6200
7434,-310,-610,-5628,-1787,-451,5281,191,5937
7434,-492,-894,-84,-969,3976,4300,126,6090
7434,-403,-823,-66,-327,3230,3274,7,5784
7434,1624,2598,1950,492,-6610,-10925,-1230,6724
7434,187,-1783,-1330,-2412,4246,9262,322,5736
7434,1482,-1121,-1826,-1080,6811,3953,107,6377
7434,1665,-893,-1837,-1362,3959,3491,126,6068
7540,-486,-178,-4084,-1823,-2008,3942,244,5236
7540,-597,-555,-158,-1636,5152,2582,375,5675
7540,688,-356,12,-1635,3491,1951,340,5281
7540,850,372,-1964,-1544,-917,507,138,5798
7540,-229,2602,-265,454,-5769,-9870,-547,5730
7540,1238,5517,1898,2519,-12263,-23195,-1628,5794
7540,-421,-1008,-2417,-2187,3289,5887,545,5581
7540,-383,-897,-2221,-1898,2797,4759,418,5277
7540,1726,-422,-2144,-1772,-168,2798,289,5233
7540,1559,-334,-2143,-1446,-830,1928,341,4838
7589,-105,3172,2091,1524,-7511,-14394,-1088,6600
7589,1543,554,766,-589,-1949,-2573,-385,5924
7589,1287,-1827,-119,-1801,2804,6631,271,5421
7589,-1029,-815,-2219,-1708,1041,3753,228,5863
7589,646,-517,-2037,-1432,498,2848,147,5558
7589,702,557,-2203,-829,-748,499,-20,6118
7589,-597,3680,101,1507,-8440,-14109,-1071,6301
7589,-344,5697,1429,2565,-13478,-22545,-1776,6168
7589,1614,-1516,-2871,-2989,3736,9303,870,5232
7589,900,-1265,-2653,-2551,3049,7756,652,5424
7638,-1013,5374,2802,3033,-12388,-23752,-1812,6834
7638,-556,4154,1225,1825,-10274,-17238,-1442,6369
7638,946,3329,336,1186,-9167,-13097,-1205,6057
7638,1126,-4246,-2415,-3807,9731,18828,708,5640
7638,-852,-5177,-3138,-3974,12052,21628,1179,5456
7638,-621,-1700,-1107,-1273,5022,5572,420,5955
7638,-738,-1529,-784,-1433,4512,4934,393,5720
7638,-178,-1035,-390,-1419,3360,3116,276,5385
7638,-350,171,989,-979,1555,511,447,5384
7638,1672,4083,3163,2041,-7371,-16907,-682,5581
7687,1273,413,-1656,-2634,-1428,2547,219,6039
7687,-502,-760,-2055,-2988,1945,7434,694,5508
7687,-635,-98,-1265,-1661,-103,3008,523,5260
7687,-226,-817,-881,-970,2413,3208,409,5445
7687,115,-680,-891,-1133,1615,2492,343,5280
7687,1578,-3239,-3628,-3943,6937,16996,843,5185
7687,255,-3055,-3207,-2840,7516,15250,1024,4826
7687,1759,-1818,-2325,-1682,5341,9459,691,4649
7687,703,149,-1744,-1448,37,1579,257,5532
7687,-484,214,-1562,-1126,-81,972,162,5366
7734,-187,5501,2589,2749,-14262,-23214,-1761,6055
7734,202,4053,1922,1834,-10214,-16792,-1322,5635
7734,1690,3583,1866,1805,-8269,-15628,-1226,5450
7734,-921,-1069,-676,-1545,2107,5717,627,5426
7734,-474,-277,-2553,-1205,896,3743,387,4973
7734,2135,-409,-3788,-1290,-2019,2672,4,4165
7734,870,-311,-3036,-1273,-1282,2269,-40,3671
7734,1284,-2460,-3970,-3166,4340,11738,334,5555
7734,1144,-2751,-3189,-2795,5394,11272,669,5171
7734,641,-180,-1945,207,337,888,114,5711
7783,1195,4495,2311,4302,-10809,-20542,-1183,5936
7783,1330,-571,20,-962,1292,2273,478,4954
7783,-1191,3335,1224,1064,-8659,-14330,-1309,6497
7783,-886,3258,1149,1274,-8245,-14038,-1259,5807
7783,762,3559,1502,2031,-8791,-15769,-1375,5390
7783,-181,-1225,-2356,-1447,3488,6589,627,6032
7783,1296,-785,-2586,-1183,1038,4727,409,5846
7783,1638,-709,-2588,-3181,1212,4160,540,5900
7783,1303,147,-1526,-2529,59,1207,300,5861
7783,915,-1781,-1932,-2137,3971,9100,929,3982
7832,3162,1777,-55,-967,-1704,-4010,-392,2572
7832,4435,-749,-1721,-2544,3931,6976,605,1543
7832,3194,224,-566,-1440,2228,2895,910,3096
7832,2410,546,-806,-1506,1048,2336,1291,2834
7832,-302,1097,-474,-990,-1670,-1451,721,4612
7832,-2257,3290,710,1395,-8705,-14150,-1556,7504
7832,-2269,2989,889,1487,-7937,-13011,-1344,7002
7832,-1096,-1265,-1338,-1936,4232,6124,572,4829
7832,-361,-584,-904,-1299,2915,3117,447,4550
7832,692,-712,-594,-3968,2779,4204,253,5425
7881,-128,5695,2755,308,-12520,-23129,-1678,6531
7881,-1324,4819,2060,89,-10691,-18533,-1428,6048
7881,1261,-3272,-1597,-3517,7968,13075,878,5145
7881,1527,-2677,-1502,-3377,7350,11467,912,4763
7881,1130,-1657,-1065,-3104,5767,8483,765,4311
7881,2124,-455,-1028,-1307,3744,4613,533,3131
7881,3146,-421,-741,-746,3503,3336,140,4088
7881,-3319,2764,1957,1168,-6517,-12675,-984,8129
7881,-3516,2744,1794,1020,-6455,-12148,-813,7915
7881,2517,-955,-898,-2126,2475,4873,45,5801
7930,-3920,606,81,-780,-1787,-1886,-61,7150
7930,-3123,-1405,-1243,-2104,2632,6560,685,6203
7930,-2536,1860,814,620,-4883,-8517,-370,6457
7930,1136,469,-412,-1015,-2009,-1116,23,4421
7930,443,4905,2728,2489,-12831,-21873,-1601,4603
7930,438,-2211,-618,-2302,1624,9619,771,4635
7930,3138,-1546,-108,-2056,-90,7449,707,4541
7930,-2448,-788,-1581,-2058,-813,4974,47,8762
7930,-3104,-646,-1307,-1860,-1175,4237,103,7174
7930,-3554,66,-621,-1147,-2930,558,-122,6120
7979,-1934,-1687,-575,-2957,-205,7868,646,6757
7979,-1467,-1478,-1946,-3684,-1602,8782,818,6298
7979,507,373,-2469,-2551,-7493,1701,470,6368
7979,-2559,-1624,567,-1310,-1628,3834,0,8053
7979,-973,-1303,957,-811,-176,2200,-54,7403
7979,-1328,1777,501,-542,-5222,-4791,-413,8080
7979,-1343,5740,3174,2977,-13815,-22918,-1700,7561
7979,2963,-1348,-1340,-3125,2746,9732,622,4998
7979,1929,-915,-1137,-2693,2092,8009,417,5157
7979,3847,121,-496,-1823,-248,3431,317,5231
8075,119,-271,193,381,-501,3659,363,9515
8075,643,-1014,-393,-1266,1458,8573,727,8620
8075,1658,-474,-923,-4637,-1769,9077,783,8977
8075,308,-130,-1167,-4506,-2403,7978,773,8568
8075,918,290,-452,-3522,-4014,3713,220,8539
8075,917,80,374,-5641,-6850,4366,-487,8709
8075,285,-3488,-1540,-7363,374,17518,586,8122
8075,-972,-304,-639,-4639,-5610,7905,926,4035
8075,938,-333,-638,-4761,-6157,7378,1008,4675
8075,-2958,-920,169,-4521,-8341,5786,-1236,5402
8123,2194,5171,3945,-520,-21519,-20058,-2332,11260
8123,591,3952,3051,-1308,-18522,-14376,-1910,9852
8123,2487,-1669,-972,-6170,-6630,13263,1116,10261
8123,3437,-1609,-806,-5866,-6403,12259,934,9616
8123,1427,-1846,590,-5063,-8752,8414,241,11936
8123,1956,-1371,302,-5053,-9338,7432,477,10013
8123,2805,-103,211,-5047,-11669,3811,647,8353
8123,-6326,-3242,208,-6747,-8340,11654,-77,13672
8123,-1983,-3386,-141,-6651,-6595,13312,826,12727
8123,1731,-846,661,-6117,-10026,7508,573,10527
8172,-2547,-754,1628,-5808,-11933,4275,348,10496
8172,-160,-1636,772,-5940,-8875,7875,928,8626
8172,808,4176,3591,-1190,-20380,-16881,-1084,8483
8172,2713,3479,2618,-2122,-18106,-11645,-618,6772
8172,11,3186,2784,-1900,-17222,-11048,-1321,9324
8172,-3187,-3502,373,-11245,-5770,13797,923,11495
8172,-2866,-3127,553,-11039,-5897,11906,650,10642
8172,1230,-1586,549,-9261,-7240,8759,1769,11818
8172,-488,-1375,1068,-8200,-7306,6555,1153,13540
8172,2823,-3491,1120,-11439,-3339,15135,844,13175
8220,-4268,1565,4941,-5592,-12659,-11125,-1249,13381
8220,-3486,-1011,2901,-7896,-7242,1542,-561,12941
8220,-4103,-2024,2261,-9040,-2201,8654,-34,16462
8220,-5570,-1410,1714,-8608,-2788,7572,-348,14240
8220,-188,-289,2568,-10617,-8286,564,267,15339
8220,1941,3529,4687,-7220,-15233,-16091,-828,12344
8220,3001,3044,4222,-7389,-13762,-13060,-407,7400
8220,822,-4056,1517,-11577,113,14139,1066,10813
8220,2397,-2930,1568,-10259,-791,10811,593,10850
8220,3507,-2599,1690,-12836,-1645,10543,-2062,8762
8268,2961,-820,1161,-11805,-5392,4605,-2528,16805
8268,-1172,3033,5560,-7030,-14399,-18787,-3765,23286
8268,-47,-3019,1930,-15367,-2449,10627,1650,8027
8268,-1570,-6850,-660,-16947,5637,25811,2373,11187
8268,-614,-3805,1821,-15110,-135,12142,-2568,2439
8268,-513,-3410,1971,-14138,-100,11078,-3803,3139
8268,91,-2345,1879,-13303,-1321,8311,-3446,6498
8268,-1117,-1685,1758,-12025,-1893,5665,3266,9135
8268,-3565,58,3496,-9594,-6711,-5524,1902,10838
8268,-539,-2767,1623,-14709,-1206,10092,3558,21739
8317,11901,372,3052,-13520,-6293,1747,6015,444
8317,4738,-2446,1178,-14741,-764,12536,2760,4336
8317,-2221,-3265,2532,-14182,-548,10655,7156,6146
8317,441,-2637,2559,-14216,-1176,9841,8184,7648
8317,-4813,-4253,1835,-15025,894,12930,903,13656
8317,-6921,-5722,591,-14065,6096,19882,-400,13478
8317,-4078,-3880,1472,-11728,3186,11810,-2233,12007
8317,9905,-1410,2574,-12930,-352,5539,3300,-1968
8317,7508,-384,1503,-12841,-2705,4976,3598,219
8317,181,-2625,4580,-15290,-1369,3682,4608,6726
8364,-4761,2332,6356,-12710,-13508,-16996,-1238,19585
8364,-4455,1081,6300,-12117,-10742,-13632,-3379,21718
8364,-3222,-4865,3702,-19532,1372,11668,70,8257
8364,-5681,-4763,3850,-18018,1278,10210,-518,9504
8364,-3148,-3710,4043,-20427,-101,18460,-5111,16203
8364,-7097,-4201,4961,-19082,-78,12682,-3861,17797
8364,111,-5673,3388,-21136,2194,16769,3859,7237
8364,2340,-4981,3789,-17410,1800,12247,3695,6578
8364,3318,-3814,4485,-14701,96,6755,3649,5848
8364,7542,-2594,3578,-18632,-1003,3300,-3516,4187
8413,4364,-739,6419,-18672,-7042,2572,-1402,9379
8413,4368,-3522,3473,-20288,-2124,12764,3181,6467
8413,-2398,-2749,8959,-19344,-6144,-6683,3003,17238
8413,2679,-1550,7851,-17703,-6357,-6946,5334,14327
8413,-9378,-9477,7419,-16098,4540,-185,-3591,15098
8413,-9526,-9235,8401,-13858,4855,-2539,-2704,12232
8413,13326,-3774,5329,-26196,-481,11718,6224,5672
8413,8604,-3925,5282,-22051,-53,8969,4267,860
8413,2716,-3904,5968,-17962,-898,3126,2061,-953
8413,-11886,-7993,5825,-21117,2152,18218,3370,18954
8462,15774,-4807,6852,-23212,-648,7686,7008,-10921
8462,16729,-4240,5586,-22558,-734,10288,6539,-12869
8462,-9434,-8055,8336,-19419,1368,11261,9283,22395
8462,-13086,-7779,7710,-21245,-1187,11944,7703,19985
8462,6093,-3468,12129,-22347,-7677,-3508,-619,16027
8462,-1277,-4854,13007,-18174,-5332,-6609,-2460,14399
8462,-12508,-5714,13023,-14977,-4802,-11617,-5379,11376
8462,-13649,-10344,10001,-19986,3112,1283,1105,3003
8462,-17893,-9700,10379,-18215,1871,1824,-318,6735
8462,12849,-5989,9705,-24860,1000,14080,7447,-162
8511,5951,-2454,14435,-18128,-7751,-8778,4169,8318
8511,9643,-658,13804,-16820,-9082,-10762,4131,3699
8511,7356,-7973,9573,-32110,1078,25074,-1185,1600
8511,3378,-7922,9526,-28566,505,20237,-3285,-1614
8511,4462,-9760,13583,-27541,2240,20916,15588,4741
8511,10652,-8906,12535,-26837,922,23281,20133,3846
8511,17955,-7370,11974,-25347,-1038,21450,19796,3993
8511,-10243,-7414,18117,-22261,-6137,-13019,-582,13453
8511,-5837,-6460,16399,-21310,-5639,-9557,-10,11836
8511,-10508,-11778,16862,-26012,3331,10745,2784,10182
8560,-2306,-3366,16876,-26111,-4293,-3287,575,6685
8560,-6954,-8696,14898,-25961,3942,10952,699,19676
8560,15998,-6280,15700,-24370,2790,2716,-2816,8668
8560,8152,-6212,15410,-23015,1193,3576,-3740,6976
8560,-15160,-12306,18104,-28160,6504,13100,-2403,11539
8560,-8148,-10408,16519,-29773,3235,15019,2398,4242
8560,-1431,-8684,15364,-29807,505,15908,1739,2837
8560,7383,-6014,15689,-30850,-922,13092,12529,-10766
8560,-4887,-7207,16384,-27570,-1455,8416,4511,-1775
8560,-4147,-4904,20610,-25560,-5296,-2195,7394,-2819
8609,7810,-4722,19959,-23427,-6581,-5585,5679,21898
8609,7538,-6842,16571,-24279,-1000,8104,6728,17763
8609,-5401,-9513,18214,-25932,1712,13122,1321,10926
8609,-6514,-9869,17999,-23424,2224,5787,2289,11347
8609,15337,-8412,19060,-23930,2169,14363,10599,-2522
8609,17043,-6874,18378,-22278,1375,10715,9589,-7324
8609,18896,-1920,19928,-18529,-7094,-9531,7545,-7011
8609,-16380,-11341,18170,-23097,5489,11747,9902,11
8609,-24438,-11236,17969,-19886,5464,5327,2211,10511
8609,-7166,-11058,19111,-22113,3009,12525,11867,1185
8658,2960,-2336,21065,-23958,-12091,-6105,-11951,11193
8658,7753,-3169,19341,-22687,-9103,636,-8463,9947
8658,9012,-6396,20487,-18717,-2177,-4741,7580,-1607
8658,8554,-11812,14813,-22065,10753,23019,11431,-2966
8658,11247,-9931,13901,-20955,7377,18246,14125,-3163
8658,-13783,-13552,18942,-19450,4640,7181,10040,1460
8658,-7151,-12009,17952,-18198,3483,5924,10695,-2145
8658,5977,-8519,16468,-20983,936,8564,8191,2546
8658,2122,-7311,16590,-18901,-421,2794,6423,3342
8658,-5918,-10371,17865,-20768,2271,2862,1990,4059
8707,6422,-7189,16230,-23201,-604,16783,5638,4799
8707,8360,-7786,15537,-22593,-253,13950,6876,2392
8707,7063,-6553,15942,-20263,375,7480,10867,5325
8707,-4435,-8017,16213,-17953,1348,5431,8268,991
8707,-5917,-7724,16368,-15527,1124,2040,6891,-675
8707,9158,-8526,12149,-22860,5879,23397,10008,7591
8707,6486,-7220,11661,-20387,4694,16986,8312,336
8707,1080,-8261,15909,-15699,1940,5883,7962,5965
8707,-14350,-8459,15527,-14956,1686,9162,508,15322
8707,9344,-4642,17144,-13696,-2513,-4280,6981,10028
8755,-4174,-2345,17315,-13962,-7982,-11563,9128,-11663
8755,-24097,-4838,18061,-11548,-6437,-15341,4441,2372
8755,-3464,-9149,15494,-15483,3972,7745,7622,13181
8755,-71,-8236,14521,-14431,3403,6287,6209,4942
8755,5356,-5912,13570,-13275,1215,2866,6361,-1374
8755,-938,-5646,13267,-13662,1340,-2812,8570,6978
8755,-638,-6243,13369,-12567,1574,-1286,6079,10223
8755,-8178,-9856,12721,-15890,3812,12027,5101,11156
8755,-5302,-8455,13141,-13150,3084,7667,5045,9914
8755,3301,-4494,12043,-15232,-634,8133,-271,1628
8804,-6585,-2504,16169,-6540,-5970,-23119,1065,11864
8804,-4996,-5130,14499,-7588,-1696,-13822,-5922,11508
8804,-8150,-4840,15995,-7306,-3230,-9371,6744,9061
8804,2079,-3418,14617,-7829,-3374,-7879,7474,8465
8804,8342,20,14829,-7012,-8327,-19155,2791,7792
8804,13388,-4811,9621,-10197,3724,9641,7049,-10166
8804,14875,-3681,9340,-9263,2572,3325,9850,-16233
8804,4650,-4740,9873,-11383,857,6814,7562,5595
8804,2915,-3653,8995,-11376,482,7545,9365,7190
8804,-1225,-6649,10260,-7921,4410,9795,11859,4508
8853,3234,-805,11641,-8880,-5239,-6530,-490,2999
8853,-1696,-4822,8773,-10298,1760,6624,1537,3155
8853,-640,-5098,10173,-9704,2868,-1522,6930,938
8853,-458,-4639,9239,-9609,1894,953,6432,1927
8853,-2752,-3945,9290,-8453,161,667,5078,6393
8853,-3373,-1540,10561,-5878,-3971,-4662,-3768,5918
8853,-8868,1667,12129,-3082,-10281,-19220,-2064,6693
8853,-596,-6665,9653,-7097,6176,6158,5425,10009
8853,-1060,-5602,8701,-6750,5017,3678,2912,-2076
8853,-7781,-6561,8848,-8214,2636,8842,1793,11836
8902,15312,4508,9297,-4262,-10174,-19118,15230,2522
8902,2330,863,8765,-4433,-5881,-12512,10913,6326
8902,-9491,-7820,7983,-8235,5451,14150,18418,7280
8902,-12733,-7645,7955,-6566,5206,14922,15189,16951
8902,-11763,-6259,7757,-3884,3611,9065,11180,20662
8902,8121,-3636,6050,-7121,2157,7223,5129,17272
8902,12560,-1622,4130,-8471,-825,10132,7437,10135
8902,-187,-1381,9470,-3129,-3045,-13047,3135,1124
8902,-3059,-1963,9295,-4315,-4129,-14082,4180,5615
8902,-7614,-6002,6499,-7309,3171,11765,-8705,-1734
8950,857,-500,9368,-612,-4145,-15318,8869,-2554
8950,124,-2839,7060,-3413,-623,-2562,4767,-1045
8950,7154,-3514,5105,-3689,3626,-75,3650,-4972
8950,11916,-2500,4591,-3469,2146,1591,6671,-8178
8950,10398,-735,5632,-2700,-1523,-3319,7402,-9854
8950,6403,-5008,4898,-4872,6794,14816,5901,-4155
8950,1256,-4825,4985,-4642,6292,12668,5433,-5067
8950,-14629,-5762,6304,-5275,3942,14079,2181,9286
8950,-17362,-5460,6605,-4455,3767,13326,-3428,8485
8950,-3203,-827,7348,-3165,-4732,-8368,1524,8275
8999,1088,-3185,6249,-2662,1280,-2656,-5030,3925
8999,4747,-2329,4219,-4927,708,-1684,6204,535
8999,-19772,-5971,5398,-3654,3654,-85,-2869,18548
8999,-15323,-5792,5532,-3177,3564,-508,135,23557
8999,-11823,-4652,5574,-3433,1298,-350,946,24309
8999,873,-2771,3715,-4075,1139,4825,8,3586
8999,-3314,-1371,5236,-247,-2546,-10161,7065,6011
8999,-619,-4431,3302,-2954,6001,6811,2937,5044
8999,1561,-3956,3467,-3440,5218,7351,3070,2131
8999,9424,-1750,3060,-5745,1257,10704,9180,-5974
9048,-1821,2474,7367,1290,-9333,-21542,25,4044
9048,-4229,1475,6961,1150,-7659,-18897,-1874,4759
9048,-4572,-5126,2350,-7581,4440,15147,2175,45
9048,-3087,-7539,944,-8533,7588,22564,2021,-156
9048,1533,-2899,2473,-5965,2226,6793,527,-7616
9048,2620,-2587,2332,-4505,2302,5686,134,-12089
9048,2817,-2004,2741,-2601,1405,2792,827,-10987
9048,4414,-1961,2764,-2783,875,9393,5628,-3140
9048,3787,2391,4211,-1353,-5794,-3168,11447,-3490
9048,-3688,-3955,3060,528,4314,-622,4497,2616
9097,-6171,-1967,4262,-740,-1031,-3360,-555,3493
9097,-4584,-3720,2752,-2200,3617,6175,-140,1578
9097,-2207,-4216,3178,-802,2711,-2125,423,-1641
9097,1184,-2480,2715,-787,934,-4308,1537,-2160
9097,-10741,-6375,1839,-3017,6578,9697,-2759,11571
9097,-7412,-6383,1221,-2958,7356,14534,576,11607
9097,-3650,-4016,1597,-1898,3693,13516,2290,12028
9097,1353,-1393,2644,-3,3006,2424,-3327,15381
9097,3183,340,893,-1607,381,1505,-722,12179
9097,5529,-1089,1864,-2900,-2522,2340,5581,-12357
9145,5856,5718,2350,977,-8895,-20035,-1591,-11008
9145,8344,3075,3361,86,-6271,-14753,-3886,-12054
9145,-488,-2438,1217,-2261,1675,9739,104,9200
9145,-1381,-2107,1209,-2190,1207,9077,-1226,11519
9145,-4947,-1978,2011,-772,1973,1333,1826,5196
9145,-5647,-1618,1553,-414,1393,120,390,4426
9145,-2046,-741,1117,-727,-604,-1551,-835,3289
9145,-294,-2970,-628,-4715,3970,14488,2691,-95
9145,704,-2751,111,-3808,2852,9173,620,2437
9145,2480,-627,589,-1281,395,5354,208,966
9194,-4421,-1490,1531,-1962,1407,4604,-6062,1029
9194,-1501,-894,1815,-430,1050,-3529,-5784,1328
9194,10066,2047,3611,1178,-6413,-13315,2803,-3321
9194,11148,2389,3088,1070,-5171,-10572,4461,-8047
9194,339,-1119,46,-1192,2129,160,-2420,6026
9194,174,-910,-7,-1277,1665,99,3731,6024
9194,1733,-990,315,-1160,200,-1729,4951,6075
9194,2277,-1348,1862,2052,3464,-2465,2662,-5729
9194,2449,-258,2011,23,233,-3589,2790,-4054
9194,4936,-837,-1,-1842,2669,4307,2053,2685
9243,-2725,2665,3744,4989,-5334,-19105,-2086,8779
9243,-9712,-1627,1545,1004,225,-3992,-1656,9340
9243,-331,-1114,613,-637,1968,-844,-2602,16489
9243,925,-630,627,-1480,907,-1176,-1098,10959
9243,8496,3721,1340,206,-7470,-8455,4467,-8451
9243,9657,3134,1252,141,-6206,-6576,6052,-13776
9243,7372,3886,2821,2863,-6420,-12431,6035,-13996
9243,-7069,-2784,65,-78,4030,3886,3226,6732
9243,-6595,-2406,207,142,3914,3257,937,5293
9243,-932,-1297,-847,-2002,718,-2167,-689,3821
9292,3274,5658,3253,3695,-9120,-24399,-2184,-2724
9292,1644,3426,2233,1079,-7294,-16511,-1972,-1970
9292,-2850,-2377,-1549,-3868,4477,12345,-5716,12966
9292,-4272,-2015,-836,-2188,4207,8197,-2052,9790
9292,-7684,-1309,-1099,-2223,2116,6963,2719,-7962
9292,-6982,-1179,-448,-1961,2115,5869,1370,-4568
9292,-4266,-766,553,-1024,802,1712,1001,-122
9292,408,2236,1274,1663,-3457,-9350,1451,3899
9292,3254,3016,1041,767,-4938,-10063,1951,1552
9292,3544,-1193,-820,-1676,2421,3599,-457,2289
9341,-6003,2780,2161,2373,-5915,-15564,214,-503
9341,-2064,-751,-58,-326,1434,1161,1109,-2213
9341,-2653,-1729,-1154,-436,389,2273,4113,6250
9341,632,1741,1412,1442,-5484,-11339,2055,4733
9341,1008,4202,3052,2906,-8265,-19307,507,1469
9341,-6173,-3095,-2647,-3020,3437,10480,255,3011
9341,-2746,-2449,-2105,-2244,3394,8970,478,1897
9341,2162,-170,-1581,-1039,3196,5075,1517,-3946
9341,4010,71,-1263,-366,2970,3404,979,-2892
9341,698,1572,330,648,-4676,-8405,-30,2097
9390,605,132,-675,-1255,-1315,-628,539,-730
9390,4383,-1892,-2101,-2249,3757,9278,1311,-1997
9390,2991,-1307,-925,-692,3297,4354,1002,-571
9390,728,-1259,-724,277,3983,3834,598,1228
9390,-4238,-852,-360,2001,4289,1591,25,3773
9390,5374,5174,1699,1904,-7935,-13626,9646,-1719
9390,3055,4579,1638,1959,-6705,-11370,8570,-1121
9390,-246,-1654,-2333,-1640,4602,9784,399,388
9390,-556,-1308,-2095,-1158,3750,6329,137,-1088
9390,-8480,-1517,-1470,297,3577,2577,-1190,6442
9438,-3057,2479,1544,3084,-3966,-13896,-1557,2374
9438,-1028,4546,2737,3993,-8291,-21966,-2679,2513
9438,-2524,-572,95,761,264,-1028,116,2097
9438,-67,-5876,-2715,-2672,10873,20652,1271,1360
9438,124,-3852,-2144,-1608,8371,13813,744,1363
9438,-3855,-1329,-2169,-445,2340,4297,-271,741
9438,-817,-1043,-1762,-125,1840,2753,-408,1218
9438,-2991,984,-502,1796,393,-4045,-946,1135
9438,-2269,5205,2119,4734,-8614,-23050,-2420,1789
9438,-1149,-854,-2258,-551,3826,5793,-256,604
9534,1691,6469,1197,3191,-9059,-20969,-2021,3093
9534,901,5080,809,2256,-7717,-16896,-1611,3108
9534,1289,314,-3153,-781,3270,5623,520,-1725
9534,1535,842,-2649,-330,2102,2917,304,-1620
9534,1691,1706,-3187,-110,1456,2374,324,-1465
9534,174,1285,-2572,781,1623,1562,138,-1177
9534,1232,1630,-1707,1565,271,-1846,-107,-873
9534,680,71,-3882,-1113,3909,8463,633,-1731
9534,1767,537,-3104,-279,2975,5474,492,-1718
9534,114,2057,-3153,1263,1749,1110,341,-1258
9583,-1264,5189,71,4077,-5417,-16408,-1574,-251
9583,-876,1222,-2392,754,1313,1044,-235,-780
9583,-94,5817,-1166,4099,-5424,-14683,-1608,-472
9583,153,5438,-1333,2848,-5703,-13272,-1429,-553
9583,4061,1635,-4429,-26,4005,5501,231,-2318
9583,5899,2250,-4515,-162,2485,3953,395,-3367
9583,785,2474,-5317,47,847,1548,-48,-730
9583,822,2098,-4695,-228,133,1519,27,-774
9583,1160,1781,-6037,-506,4054,7257,104,-1435
9583,-202,2293,-5372,265,3200,4520,-10,-1283
9632,-328,3976,-4123,746,-954,-2792,-630,-1301
9632,104,2086,-4860,-177,2489,4175,-2,-1392
9632,-1022,3223,-5420,153,1131,802,-213,-87
9632,443,3421,-4864,529,697,-581,-247,-229
9632,1535,8298,-3911,3656,-6966,-16496,-1910,523
9632,274,7629,-3734,3716,-6292,-15409,-1764,900
9632,2255,3439,-7114,1131,3047,3246,-134,-2062
9632,2125,3443,-6539,1196,2358,1989,-160,-1986
9632,510,3952,-5477,1871,884,-1762,-366,-1762
9632,1343,4293,-6448,2761,3100,-214,-414,-1714
9681,629,10368,-2792,6690,-9988,-26412,-2357,-1050
9681,2049,8857,-3368,5605,-7702,-20364,-2109,-1105
9681,80,1253,-8956,773,7247,12008,420,-2977
9681,1837,1990,-7977,1469,5763,8053,275,-2827
9681,1698,4542,-8506,3204,2904,1326,-376,-2068
9681,241,4507,-7969,2881,2220,631,-414,-1950
9681,507,8982,-6572,6267,-5042,-16111,-2025,-1517
9681,743,8712,-6204,6065,-4834,-15626,-1911,-1508
9681,746,8759,-5527,6214,-5543,-16887,-1947,-1439
9681,711,4590,-9244,3562,3338,2526,-446,-2037
9730,3206,9054,-5947,7153,-4246,-16841,-1821,-1620
9730,676,4135,-9215,2547,2524,3613,-388,-2016
9730,2802,5191,-9893,3359,2255,1567,-291,-2106
9730,1467,5389,-8991,3897,1536,-646,-503,-1946
9730,1272,3557,-10586,3133,4309,6074,-198,-2401
9730,1475,4131,-9737,3730,3447,3542,-386,-2310
9730,3874,5071,-9900,4826,2721,366,-795,-2557
9730,2808,4626,-9167,5264,2644,-207,-1043,-2257
9730,886,5186,-8164,5876,928,-3926,-1359,-1836
9730,1509,8584,-7083,7962,-4049,-14969,-2578,-1636
9779,1633,8594,-8203,7666,-3779,-13859,-1934,-1749
9779,1542,7142,-8775,5974,-1803,-7504,-1662,-1816
9779,2889,5163,-10852,5413,2763,1809,-1034,-2242
9779,1306,4882,-10167,5219,2750,1353,-1086,-2118
9779,2201,5335,-9501,6554,3808,168,-1329,-2681
9779,3089,5614,-8919,6548,2674,-1675,-1358,-2392
9779,485,3594,-13361,5928,2912,5095,-1472,-1558
9779,982,3578,-12088,5912,2565,3618,-1507,-1462
9779,2862,3940,-10813,6170,1640,1182,-1562,-1498
9779,1418,4855,-11648,7566,1433,-1035,-1686,-2373
9828,1385,11711,-3186,12653,-7443,-27830,-4048,-1443
9828,2884,10771,-4206,11221,-6149,-22376,-3636,-1539
9828,688,7382,-7785,11444,-9438,-18518,-4046,-1335
9828,1790,-214,-13027,6246,4075,12833,-1678,-2109
9828,316,4491,-11573,8513,4494,2284,-1671,-2507
9828,381,4544,-10474,8202,3665,360,-1653,-2312
9828,2224,4971,-9525,8217,2219,-2791,-1712,-2062
9828,2679,5646,-10317,9071,3826,-1696,-1931,-2655
9828,2996,8985,-6733,12238,-2296,-18437,-3089,-2269
9828,1764,4850,-11160,8890,4597,2002,-1884,-2343
9877,-18,5962,-10271,10286,1777,-4255,-2590,-1986
9877,1113,3977,-10505,9095,4805,1985,-1964,-2046
9877,4,5812,-12066,9038,3033,693,-1984,-2387
9877,915,5121,-10827,8894,2829,-257,-2050,-2191
9877,-510,2081,-13879,8274,7952,12492,-2218,-2415
9877,-447,2377,-12817,8539,6697,10144,-1879,-2275
9877,115,3799,-11178,9267,3320,3241,-2070,-2066
9877,1575,5098,-10890,11322,3044,-2798,-2426,-2222
9877,1938,5608,-10927,11009,2204,-4508,-2346,-2184
9877,1895,7896,-16864,11116,-7561,-6774,-2515,-2422
9925,878,8329,-9212,13209,-8043,-20181,-4089,-1022
9925,-463,7283,-9813,12026,-5504,-15441,-3720,-1075
9925,508,3932,-14157,10864,-1163,-163,-2588,-1825
9925,643,4520,-13082,10486,-232,-1025,-2491,-1770
9925,964,8743,-10704,12893,5182,-1821,-2754,-2257
9925,-510,8754,-9806,12516,4430,-3044,-2753,-2093
9925,886,8854,-8725,12576,2856,-6308,-2930,-1752
9925,-1465,251,-3303,12906,10005,4163,-2684,-1910
9925,-1010,1412,-2519,12398,6808,1071,-2468,-1905
9925,-295,2796,-9449,14234,3763,-2668,-2918,-2658
9974,1955,5115,-4409,14857,798,-13463,-3842,-1883
9974,1225,3653,-6880,13044,5139,-6174,-2936,-2940
9974,-39,5680,-9899,16391,-7179,-16822,-4581,-989
9974,-52,5272,-9630,15284,-7102,-15195,-4252,-955
9974,415,2686,-15873,14871,4389,1644,-2824,-2331
9974,-165,2060,-11056,14397,6895,1097,-2829,-2076
9974,-330,2016,-6575,14273,8057,-979,-2823,-1839
9974,473,3095,-5772,15206,5854,-1636,-3031,-2369
9974,368,3239,-3693,14389,5859,-1980,-2823,-2407
9974,-2138,2410,-7612,15939,5178,1166,-2988,-1986
10023,-1814,6378,-228,20328,1087,-21510,-4731,-1443
10023,-1456,2310,-2926,16489,8600,-4037,-3456,-1794
10023,-1748,2113,-13137,17915,4543,-1766,-3348,-2160
10023,44,2145,-15627,17229,2302,-3828,-3437,-1948
10023,-1274,7298,-2685,20672,1153,-16603,-4448,-2054
10023,-932,6714,-2644,19369,2851,-14767,-4112,-1964
10023,-746,9124,-2415,20771,-3402,-26858,-4913,-1247
10023,-3,1979,-4668,18599,4242,1857,-3096,-2401
10023,-1325,2804,-9757,16887,-3090,537,-3047,-2133
10023,-1187,1956,-7321,19867,18995,-288,-3171,-2530
10072,-584,7898,9276,22284,2542,-25223,-4768,-2243
10072,1284,6606,3505,19771,2372,-17372,-4112,-2411
10072,394,1139,-13395,17887,14181,7329,-2802,-2927
10072,-941,1349,-12219,16864,12939,5980,-2571,-2734
10072,-1280,1404,-9176,20359,12403,344,-3641,-2587
10072,-20,1160,-8221,18718,10205,372,-3364,-2591
10072,-1386,1185,-5558,17964,9874,-1116,-3223,-2400
10072,245,5980,-8775,21721,4965,-14270,-4707,-2260
10072,-1377,5182,-7559,20767,6457,-12545,-4330,-2150
10072,1403,1964,-9304,19630,13103,397,-3409,-3311
10120,98,4355,2794,23876,18961,-17174,-4849,-2131
10120,-1605,3519,6190,22059,20464,-14681,-4686,-2207
10120,1825,1981,-11528,18558,7542,1685,-3005,-5089
10120,-163,1629,-6739,18263,11254,364,-3092,-4418
10120,1525,907,-16108,19131,1617,4727,-3526,-3006
10120,1060,1415,-17593,18233,2430,3045,-3469,-2845
10120,-758,2343,-16791,18101,2437,-1261,-3636,-3203
10120,-1963,693,-8794,19694,13510,-1324,-4011,-2738
10120,-124,967,-9252,19068,13337,-2705,-3842,-2676
10120,-273,5431,-3117,21217,8840,-16397,-4644,-2746
10169,200,624,-5453,18247,18612,2898,-3366,-3383
10169,516,1120,-8106,17847,18676,1286,-3180,-3185
10169,361,2308,-6858,19239,16077,-1599,-3442,-3801
10169,200,2423,-6417,18243,14733,-1952,-3346,-3667
10169,-1950,2652,-5697,20817,17000,-3997,-4025,-3826
10169,-315,2633,-5345,19285,15116,-4453,-3717,-3648
10169,-1291,3631,-4767,18492,10649,-8898,-3769,-3417
10169,-816,1299,-6505,18430,18054,1069,-3430,-4133
10169,-1862,1870,-5471,18595,16431,-1415,-3444,-3977
10169,-119,4331,-6584,18404,13124,-3579,-3729,-4126
10218,-2335,7489,496,20925,52,-27150,-5339,-3278
10218,-1960,7922,-817,19878,-2916,-27538,-5397,-3019
10218,-1544,4607,-5740,16200,10715,-1902,-3828,-4582
10218,-1756,305,-9808,12688,16453,15279,-2188,-4854
10218,-1489,3150,-9508,16922,11704,-833,-3386,-4862
10218,104,2993,-8290,16507,12149,-1263,-3376,-4405
10218,117,3177,-7623,16381,10233,-3188,-3334,-3932
10218,27,3553,-7039,15024,9258,-3139,-3079,-4877
10218,-213,5015,-5800,15714,4731,-11191,-3629,-4253
10218,-2175,2349,-2919,15083,8815,-989,-2896,-5030
10267,-355,5446,678,17636,2448,-15593,-4216,-4518
10267,-2084,1899,-2725,14449,9363,-340,-2963,-4639
10267,-330,3068,-2311,15048,10477,-2568,-3025,-5160
10267,-2002,3037,-2714,14804,10171,-3794,-3037,-4741
10267,-1745,3517,-2790,14844,8394,-7199,-3212,-4324
10267,-1252,-1328,-4782,11938,16259,12587,-2069,-6196
10267,-707,-218,-2296,12070,14101,6820,-2159,-5752
10267,-1310,3373,-1131,14009,5210,-3478,-2550,-6495
10267,-404,3072,-3186,12774,758,-3642,-2588,-5773
10267,-785,5992,-5790,15976,-7578,-18132,-4157,-4758
10315,-2311,6047,-3959,16610,-11928,-22780,-4970,-4440
10315,-2119,5022,-3515,15284,-8710,-18622,-4486,-4293
10315,610,1953,-4912,12797,3743,-174,-2472,-6522
10315,669,2098,-4346,12057,3012,-516,-2270,-6362
10315,-1270,2347,-5706,12936,-732,-3052,-3069,-5858
10315,-2268,2475,-5510,12417,-1413,-3814,-3029,-5541
10315,-3170,127,-7469,11105,2165,5770,-2717,-5865
10315,-1416,598,-6597,10992,466,2734,-2657,-5542
10315,-2556,1567,-5165,11269,-2006,-2219,-2835,-5064
10315,-259,2499,-4176,10876,-6668,-3084,-2680,-6204
10365,-392,6370,-8262,13624,-14095,-17942,-3662,-5911
10365,-1754,5658,-8384,12220,-13033,-14993,-3414,-5766
10365,-2217,5167,-577,11530,-12957,-15986,-3637,-6705
10365,-2075,8680,3020,14257,-20284,-32826,-4703,-5711
10365,-1932,1283,-5368,9879,-4472,2614,-2054,-7023
10365,-1836,1423,-4696,9142,-3973,2103,-1933,-6718
10365,-1249,1850,-2507,9100,-4021,-48,-1878,-6339
10365,-1541,1849,-5825,9453,-6517,-549,-2294,-6619
10365,-156,2394,-5383,9862,-7667,-3890,-2443,-6104
10365,-2284,1375,-8177,7642,-7578,2471,-2176,-6835
10414,-511,1675,-7925,8537,-8175,470,-2471,-6593
10414,-2074,1434,-7364,8355,-7234,145,-2178,-6296
10414,-1371,1413,-5729,8943,-7132,-671,-2375,-6938
10414,288,1433,-5366,8671,-7416,-1338,-2228,-6734
10414,-2085,5263,-3696,11760,-15568,-16825,-3794,-5948
10414,-2014,9131,-3783,14087,-28278,-34289,-4814,-5066
10414,-578,9615,-3403,13668,-30872,-36074,-5030,-4555
10414,-1597,177,-6524,7375,-5777,5069,-1779,-7384
10414,-526,642,-5049,7379,-6196,2180,-1918,-6769
10414,-1912,518,-5905,7788,-3196,3248,-1986,-7064
10463,553,5714,-1468,12247,-15815,-20922,-3656,-6001
10463,685,5991,-1235,11926,-17085,-22061,-3733,-5377
10463,-1731,-2083,-3618,6715,-1727,8676,-1496,-6989
10463,-2740,-543,-6086,5571,-5340,7442,-1135,-6943
10463,-1288,833,-8767,6537,-3907,4845,-1186,-7921
10463,-1562,814,-8601,6304,-4231,4204,-1238,-7316
10463,-1280,1053,-7757,6517,-5761,1800,-1434,-6700
10463,-35,1600,-3999,6893,-7986,-2895,-2358,-6645
10463,-218,-1589,-5679,4729,-63,10408,-1283,-6570
10463,-2211,614,-6419,6526,-3873,2295,-1345,-7116
10512,-1831,4396,-5569,7585,-16686,-11698,-2491,-6462
10512,-1452,578,-6705,4824,-6582,3439,-1356,-6496
10512,-1122,5703,-3238,9212,-14334,-17769,-2836,-6457
10512,-242,4712,-3111,8701,-12789,-15541,-2768,-5939
10512,-1422,-714,-7888,4092,-3202,7234,-1106,-7138
10512,196,-649,-7017,4184,-2581,6089,-1090,-6736
10512,-118,-213,-5896,4719,-2605,3502,-1268,-6236
10512,-1790,567,-5259,5458,-1907,2450,-1337,-6736
10512,-313,649,-4759,5221,-2180,1781,-1160,-6373
10512,-2415,-1693,-1752,4917,3685,8742,-1053,-7117
10561,-1430,4840,-3871,9443,-13870,-18591,-2780,-6244
10561,205,1215,-5796,6288,-5503,-2410,-1813,-6224
10561,-1800,208,-8623,5881,-739,1430,-1266,-7908
10561,67,806,-6805,5704,-3140,-522,-1359,-7644
10561,136,1447,-4778,5859,-6979,-3255,-1512,-7295
10561,-2731,4994,-5071,7043,-14034,-16047,-2514,-5163
10561,-2461,4772,-3817,7133,-14085,-16833,-2645,-4931
10561,-747,-901,-6070,4496,84,6616,-938,-7127
10561,-1815,-654,-5698,4372,-548,5421,-959,-6781
10561,-1860,214,-5945,5502,-1948,2004,-1128,-7512
10610,-1502,6310,-4179,7805,-20795,-25317,-3360,-6434
10610,57,4907,-4600,6371,-16561,-17889,-2774,-6352
10610,127,-3407,-12536,326,2149,21368,-31,-8246
10610,-143,-2278,-10692,874,2790,16454,-56,-7819
10610,-1705,-856,-8230,1726,958,9332,-292,-7378
10610,-1531,125,-5055,4046,-2423,2672,-924,-7894
10610,381,558,-4283,4214,-2448,791,-924,-7388
10610,142,4344,-428,7442,-12116,-17291,-2488,-6633
10610,-961,4402,-1518,6603,-11680,-15298,-2232,-5995
10610,-1974,906,-7912,3300,-2811,2904,-724,-7823
10659,-100,530,-1379,4137,211,1687,-755,-8287
10659,-1779,374,-1253,4187,901,2078,-447,-8061
10659,-921,767,-4436,3699,-2025,1593,-644,-8388
10659,406,694,-4165,4070,-1562,815,-847,-7909
10659,235,1042,-3679,4694,-2232,-1582,-1053,-7368
10659,-60,-1421,-5448,2417,1620,8142,-339,-8179
10659,-193,-1088,-4006,2507,995,6251,-320,-7683
10659,-2075,1658,-7938,2582,-8343,1224,-522,-7427
10659,-1564,1936,-6160,3007,-7831,-1049,-698,-7012
10659,109,4474,-2007,6310,-14379,-16871,-2172,-7467
10706,269,5108,-1343,6779,-14743,-18509,-2191,-7423
10706,-1071,4715,-1335,6136,-13648,-16813,-2033,-7055
10706,50,295,-5054,2603,-3155,2970,-267,-8250
10706,-1142,533,-4649,2883,-3320,1629,-315,-7731
10706,-1448,38,-4118,3189,-1111,1703,-541,-8304
10706,-67,-4,-3722,3305,-1191,1133,-579,-7722
10706,47,876,-4155,3240,-4609,-1870,-716,-7184
10706,-66,-3069,-6983,442,3942,16520,94,-8226
10706,-1485,-2184,-6167,1237,2804,11793,37,-7716
10706,-1482,771,-5713,2882,-4535,562,-407,-8245
10755,834,5174,-2291,6696,-14504,-19397,-1934,-7684
10755,779,799,-3654,3200,-3692,-803,-663,-7700
10755,-1807,4580,268,7182,-14714,-20308,-2457,-7619
10755,-25,8311,3720,9361,-22933,-36813,-3479,-6825
10755,-1376,-219,-5348,2173,978,5972,-109,-8821
10755,573,-72,-4845,2282,996,4776,-161,-8327
10755,382,878,-3820,2792,-714,1152,-434,-7769
10755,223,112,-4603,2457,-183,3534,-417,-8383
10755,-742,522,-4676,2185,-1199,2773,-364,-7981
10755,-1715,-229,-5702,2054,-379,5038,-270,-8591
10804,-474,1500,-5007,3371,-5422,-2567,-1148,-8936
10804,230,-591,-5633,2145,294,5832,-393,-8783
10804,92,288,-3064,3132,1724,2010,-591,-8391
10804,-1413,505,-2853,3247,339,318,-668,-7848
10804,44,1262,-2393,3545,-2322,-3020,-839,-7306
10804,562,9323,110,8482,-24832,-36543,-3481,-7340
10804,662,7947,641,7762,-21061,-31288,-3215,-7179
10804,-1290,-954,-5583,1316,91,7254,-237,-7849
10804,334,-840,-5472,1519,-456,6447,-247,-7321
10804,771,687,-5193,1042,3322,5458,91,-8158
10853,-1354,5835,2625,5882,-11441,-22199,-1815,-7452
10853,-1398,4620,1840,4910,-9677,-17052,-1674,-6989
10853,-59,-1707,-5790,1187,6518,10062,275,-8264
10853,-1233,-1418,-5107,1204,5350,8774,132,-7714
10853,0,-414,-4046,1655,2355,4465,-82,-7249
10853,593,-262,-3504,1196,1591,5287,-249,-7712
10853,6,0,-2340,1681,1543,2907,-511,-7136
10853,262,2671,-1310,4088,-5425,-9532,-1453,-7308
10853,-138,-1466,-3934,613,4678,9678,-25,-7477
10853,-2014,-740,-4514,982,4712,3918,-390,-7672
10902,-1294,1035,-3969,1469,-1917,252,-716,-7918
10902,369,-44,-4690,549,2540,5717,-171,-7712
10902,-1588,5024,-1331,4866,-16184,-18787,-1990,-7050
10902,-1125,3631,-2006,4062,-12584,-13460,-1681,-6778
10902,659,3590,-1609,4252,-11295,-13965,-1729,-6319
10902,-1815,-1358,-4728,447,3188,8803,142,-7462
10902,-1072,-1078,-4395,454,2570,7778,233,-7129
10902,311,-431,-6371,1255,490,5590,13,-7531
10902,-1100,-100,-5227,1516,-54,3723,-40,-7048
10902,-135,-1107,-5533,-1271,3706,12405,493,-8443
10951,-33,3375,-810,3841,-7598,-12109,-1181,-6201
10951,-1259,2540,-1131,2765,-5770,-8230,-1089,-6072
10951,391,-559,-2909,890,1885,5048,184,-7470
10951,-1188,-243,-2872,599,1109,4455,152,-7103
10951,-894,543,-2367,973,-922,783,-170,-6607
10951,367,3408,-68,3924,-9147,-14179,-1625,-6225
10951,-1159,3067,-130,3736,-7869,-12731,-1472,-5906
10951,-714,-1128,-2623,60,4288,8282,528,-7199
10951,1251,-529,-1514,316,5000,6023,390,-6763
10951,-1323,-279,-7058,1217,-2259,3900,-112,-6618
11000,-35,6284,-234,4441,-15160,-22902,-1764,-5904
11000,1121,5202,10,4037,-12639,-18949,-1667,-5622
11000,588,-3335,-4392,-377,6999,15331,830,-6947
11000,-732,-2252,-4542,-890,2631,11640,757,-6462
11000,-609,-452,-3697,305,1079,5617,258,-6385
11000,-494,-259,-3191,340,1233,4609,274,-6048
11000,-57,524,-2120,920,-141,859,132,-5549
11000,-561,3645,397,3573,-4152,-13096,-1123,-5296
11000,709,3414,-1178,3198,-5426,-11625,-1005,-5058
11000,-32,-586,-4443,779,1176,5468,99,-6719
11049,-436,1379,-4104,1623,-5117,-1807,-658,-5366
11049,507,-1088,-4292,748,3091,7179,87,-5230
11049,-1069,-7,-2856,-145,-889,4076,142,-5524
11049,-794,377,-2415,263,-1748,1878,-58,-5340
11049,-986,-2017,-2083,249,3287,10966,345,-5988
11049,890,-1313,-4003,192,199,8908,218,-5566
11049,1135,-109,-4764,626,-2019,4222,-83,-5049
11049,-1448,-237,-2806,1076,-1185,2886,-274,-5215
11049,-1160,-178,-1670,1425,-50,1903,-288,-4894
11049,-665,3831,1371,4087,-8885,-14712,-1564,-4515
11097,1558,410,-3172,1584,-1017,1499,-692,-5000
11097,1095,-1539,-4688,510,3630,9168,-56,-4845
11097,728,157,-2134,1120,2515,2529,-146,-5052
11097,-647,417,-2209,1126,1341,1777,-169,-4706
11097,129,502,-2116,909,-573,1026,-266,-3747
11097,290,328,-1878,881,-510,789,-366,-3602
11097,356,619,-1564,1013,-1629,-952,-434,-3513
11097,1434,-2192,-190,-521,3812,8591,139,-5632
11097,295,-780,-1331,444,156,3218,-119,-5333
11097,-1519,282,-2634,551,-505,1233,-246,-3982
11146,507,169,-2477,-111,-490,2021,-461,-4427
11146,478,746,-1819,652,-2378,-1776,-476,-4051
11146,426,8254,1602,5555,-23898,-34659,-3293,-3234
11146,-1151,5730,354,3496,-18104,-23921,-2643,-3224
11146,1098,-579,-2470,-1051,1615,5869,564,-4867
11146,634,-471,-1645,-757,1547,4587,421,-4615
11146,-1039,368,-650,-21,-293,583,63,-4265
11146,1373,141,-3573,315,-307,3079,-7,-4629
11146,1485,382,-3272,504,-1443,1390,-116,-4318
11146,-294,-421,-1868,-193,2930,4331,149,-4568
11195,123,4392,983,3247,-10897,-18273,-1535,-4517
11195,324,807,-1263,124,-2160,-1618,-503,-4810
11195,217,-643,-1904,268,1560,2962,52,-3942
11195,-860,-460,-1900,380,1144,2042,-39,-3612
11195,142,8436,3301,6654,-22766,-36411,-3320,-3923
11195,745,5024,1001,3949,-14226,-20628,-2345,-4613
11195,3054,4841,1070,4054,-13934,-20716,-2219,-4549
11195,-742,-1548,-2999,-438,5805,8225,489,-4206
11195,-835,-939,-2275,-51,4194,5827,379,-3766
11195,78,-823,-1942,-370,2869,5697,143,-1277
11243,819,4583,1018,3520,-11310,-18431,-1488,-2865
11243,-672,4516,1276,3143,-11561,-17912,-1405,-3644
11243,-442,-2613,-3094,-908,6766,10854,202,-3204
11243,1142,-1979,-1835,-52,5634,7398,93,-3167
11243,-671,-684,-4433,-444,1371,7312,518,-3751
11243,-127,-517,-3649,-215,1486,6308,524,-3480
11243,1044,394,-2163,263,461,2593,331,-2958
11243,-1007,122,-1618,187,-1541,1932,-505,-2347
11243,-679,-2488,-3103,-1295,5346,12446,388,-2366
11243,1067,-378,-2973,165,-796,4837,451,-3447
11292,409,2415,-961,1968,-4326,-8234,-1017,-2130
11292,-614,-839,-2767,-377,3277,5890,-1,-2399
11292,1196,4041,335,2658,-10335,-14324,-1150,-3506
11292,579,3397,509,2887,-9004,-13092,-1273,-3376
11292,209,-1460,-3366,-670,4464,9716,809,-3014
11292,314,-1095,-2855,-463,3712,8164,869,-3244
11292,614,-417,-1745,406,1383,3753,595,-3302
11292,203,-452,-2367,-87,1937,5335,666,-1031
11292,-1120,-269,-2072,202,703,3096,266,-100
11292,2465,-1166,-1627,152,1694,5174,-419,-3348
11388,-849,480,-210,323,1850,1274,-26,-274
11388,-700,1385,704,1381,-467,-3976,-441,123
11388,348,5082,3525,4772,-16221,-23934,-2193,1331
11388,-957,3057,2242,2875,-10802,-13584,-1549,901
11388,3163,-1503,-2189,-1314,182,8432,810,-2246
11388,1608,-1053,-1927,-655,-403,6421,663,-1578
11388,1799,-381,-2418,-437,-896,6012,1044,-1856
11388,1043,486,-2135,270,-2520,2669,659,-1420
11388,-1170,4630,1050,4083,-12696,-17853,-993,421
11388,3339,-1627,-1543,1369,1743,6418,-363,685
11437,-1345,3178,1007,3576,-9105,-12906,-905,2715
11437,-481,-828,-1261,633,469,5057,167,2476
11437,1376,-1224,-2461,-997,-180,6243,166,539
11437,30,-843,-2058,-156,-733,3619,-59,760
11437,1551,576,-2019,-1646,-3476,2172,-279,3666
11437,-1732,-4238,-4285,-3898,7926,19534,730,3439
11437,-1786,-3188,-3095,-2166,5522,11639,-11,3862
11437,-308,-873,-1882,-2762,545,4862,-12,2155
11437,-2664,-1153,-1434,-1859,756,3839,-304,3320
11437,3765,2042,-1453,315,-3989,-2971,1007,1755
11485,-3022,3081,812,3773,-9706,-14687,-1402,4158
11485,-4191,2592,786,3745,-8422,-13118,-1519,2876
11485,4463,-722,-2253,-1867,1856,6822,152,2716
11485,5403,-457,-2143,-1165,1623,6057,-27,3838
11485,-2500,-637,-1695,-2482,469,3642,-87,6317
11485,-935,-403,-1286,-2102,-232,1694,-361,6565
11485,-1220,-2710,-2659,-2763,3909,14008,194,6490
11485,554,-2188,-1956,-1954,2907,10679,79,6347
11485,586,-1339,-1113,-1154,1016,6240,-163,6169
11485,1089,287,-1661,-940,-2274,2192,-753,11142
11534,1925,2680,-207,447,-6808,-4217,396,1185
11534,1109,-159,-1423,-1731,-1708,6004,789,3021
11534,-1474,3451,1207,421,-12902,-11564,-1524,11182
11534,1057,3195,1075,339,-11756,-10134,-1119,10019
11534,961,-740,-1219,-1496,-3189,7803,-1384,13320
11534,-2536,-846,-733,-1444,-3437,6617,-811,13547
11534,-1408,-50,-263,-1710,-5500,3578,222,11881
11534,-833,-975,-224,-4426,-6243,8212,643,12158
11534,-2157,-767,170,-4056,-6503,5806,124,11053
11534,551,-1261,-1037,-5677,-7131,12392,2245,10169
11582,6303,3923,1826,-3466,-15319,-8991,-1350,-468
11582,6213,3276,989,-4612,-13136,-4136,-793,-1480
11582,-1029,-1039,46,-6269,-7096,8057,670,10796
11582,-1047,-1065,618,-4597,-6792,5469,286,9353
11582,-6090,2143,3184,-3377,-15552,-9539,-2974,10082
11582,-4043,2441,2496,-2412,-14051,-8038,-3004,13356
11582,-1796,-1835,87,-9350,-5392,13427,869,16279
11582,-2655,-1520,147,-9185,-5144,12169,835,15235
11582,-1326,-493,663,-8501,-6539,7748,548,14490
11582,2815,-716,984,-9170,-5365,10458,482,18986
11630,-70,3389,3318,-6228,-13058,-6309,572,13265
11630,1299,5335,4712,-4264,-16797,-15472,-252,11899
11630,-2349,-4763,792,-12072,856,21439,907,19173
11630,-3225,-3865,1272,-10808,-396,17671,794,18357
11630,167,-1644,2063,-8809,-4254,11358,414,22447
11630,-1501,-1199,2256,-8325,-4735,9261,825,18640
11630,-9220,2041,5536,-9532,-12528,-613,2652,20976
11630,-6929,1825,5165,-9303,-11143,-688,-2087,18667
11630,-3957,2553,5250,-8681,-11894,-5029,-5766,17207
11630,-1206,-2956,3005,-21005,-1696,11021,-586,20344
11679,2335,267,5591,-8817,-9682,4038,3862,20662
11679,-1198,-3109,2824,-11434,-2016,12702,-463,21177
11679,-6439,-3679,3936,-15245,-1094,14030,1659,21966
11679,-3886,-2858,3788,-16044,-2156,11771,1891,19536
11679,4727,-3771,3505,-17657,2288,20902,2846,17640
11679,1391,-3770,4300,-15887,1482,16668,1928,18706
11679,7760,-1738,4462,-18172,-1791,9062,6568,28736
11679,2720,-2252,4516,-17100,-2009,6143,4724,24057
11679,-4533,-2277,5330,-15318,-3366,1695,3064,19396
11679,-332,-785,9582,-14903,-8717,-2950,-3133,16865
11727,-5526,-1869,7568,-17896,-5384,4885,700,16253
11727,-3329,-5355,5166,-20616,2419,19934,3240,14278
11727,-3679,-4740,7476,-21637,446,13037,684,25247
11727,-5075,-3588,7590,-19941,-1073,7695,-380,23330
11727,3807,-4266,7822,-21970,98,14043,15145,18588
11727,6793,-2875,7140,-20619,-775,11828,10159,19892
11727,8089,-5658,5958,-31404,4270,33250,1436,11497
11727,5892,-5165,6306,-29070,2433,27902,2617,14354
11727,769,-4638,7067,-25071,889,20634,673,17849
11727,-5217,-5378,10254,-23413,1022,17551,2184,28560
11776,-3844,-4643,11493,-20632,-1008,6404,-1740,12891
11776,-11578,-6520,10604,-20255,2691,11085,-3343,13401
11776,-2006,2688,16396,-19433,-14755,-22354,-3842,21741
11776,-1717,-728,13184,-24415,-8353,-4689,1265,19134
11776,-7418,-7972,11509,-31212,1412,23770,8528,23101
11776,-5493,-7350,11949,-27938,2315,15935,6326,23570
11776,3586,-5755,13415,-31594,440,12154,5897,24345
11776,1644,-5734,13003,-29902,603,12163,5375,25971
11776,-3377,-5263,12718,-28156,-202,10422,3933,24308
11776,-10290,-7291,13958,-32928,1341,10268,-1317,36018
11825,-8269,-4562,18080,-26606,-2930,-1653,3368,2627
11825,-8715,-7843,14908,-28746,3499,14283,9950,7280
11825,-6267,-10077,18186,-36570,2713,18774,-1402,12421
11825,-7025,-9500,17730,-33517,3704,17646,-3729,9044
11825,-214,-134,22479,-24413,-13356,-14603,6998,27121
11825,4441,-2474,19612,-26870,-8048,-2610,5770,9576
11825,-3746,-9956,19487,-33608,3889,10463,-2034,23466
11825,-4261,-9286,18512,-31367,3882,9892,-4754,20909
11825,-2372,-6750,17209,-30431,1269,9362,-4194,14757
11825,-9961,-9119,18822,-39857,-65,20527,7353,15805
11873,-733,-2710,23038,-31471,-10484,-7593,4111,17450
11873,-1735,-3546,20905,-30748,-8889,-2519,3468,19004
11873,13539,-9175,19260,-35556,4687,22518,5735,3048
11873,13271,-8292,18621,-32717,3747,20196,4898,-3800
11873,-4417,-11750,22826,-36534,3628,14700,5620,23703
11873,-2595,-10520,21359,-35003,2790,11347,4874,23529
11873,-3220,-7184,24674,-37285,-4832,8406,10821,1668
11873,-5414,-11384,20730,-37556,3261,23516,10900,4353
11873,-5033,-11283,20668,-33824,3388,18725,9160,8357
11873,11080,-8819,22015,-34890,231,16192,7894,8225
11933,-631,-7165,26526,-24402,-5475,-6298,2261,27721
11933,5237,-9505,22684,-25792,1736,9636,3570,21711
11933,-301,-5967,25898,-26681,-8019,-13308,7342,17911
11933,10,-6026,24245,-25292,-6903,-10174,7938,15675
11933,10482,-11163,22501,-32408,4306,24861,9805,13781
11933,1838,-10611,21447,-30118,3782,20424,7664,18145
11933,7872,-10407,23155,-31864,2257,16444,11276,8087
11933,7948,-9618,22124,-29987,1431,14747,9791,9032
11933,10150,-1496,28031,-26568,-15270,-19530,-2559,2939
11933,9263,-5588,24150,-28231,-6280,-180,7722,-5361
