timestamp,ch1,ch2,ch3,ch4,ch5,ch6,ch7,ch8
66,0,0,0,0,0,0,0,0
66,-1017253,546646,465154,-2712414,-329363,672110,864479,-272720
66,-956787,514420,437795,-2551975,-312190,632159,813017,-256015
66,-901553,484187,412204,-2400803,-293028,594490,764905,-240821
66,-845886,454941,387821,-2260445,-273014,563998,720451,-227179
66,-796272,428259,364896,-2126329,-256929,529228,677810,-213685
66,-750493,403641,343396,-1999562,-242174,493988,637270,-201003
66,-705841,379873,321577,-1882467,-228682,466764,599903,-189412
66,-663097,357779,302830,-1770860,-215213,437703,564253,-177991
66,-624382,337637,285341,-1664990,-202035,408549,530765,-167816
114,-587922,319194,271363,-1563315,-191506,368568,497627,-157120
114,-554607,300063,254860,-1471565,-180410,349006,468405,-147909
114,-521075,278421,237423,-1389427,-166030,350285,442941,-139866
114,-489626,262148,223514,-1306974,-156127,328561,416755,-131547
114,-459943,247906,210204,-1229209,-149164,306646,391703,-124687
114,-432672,233491,197822,-1156194,-140498,287404,368451,-117273
114,-408859,216783,185281,-1090940,-133549,278414,347054,-110245
114,-384960,202861,173335,-1026718,-125311,266158,326946,-103959
114,-362067,191851,163251,-964252,-118106,244837,307319,-97674
114,-338845,182563,156077,-906043,-107479,226410,289122,-92146
163,-318550,173990,144017,-851028,-106118,202315,271031,-86578
163,-300606,161349,133163,-803835,-98976,203071,256097,-81885
163,-283847,154435,131469,-750989,-92318,171350,239104,-75631
163,-265863,145287,123615,-706739,-86926,161665,224934,-71067
163,-250652,134403,114947,-669320,-80097,172095,213602,-68709
163,-234856,125959,108506,-629888,-74762,161668,201026,-64499
163,-222067,118751,102218,-591885,-69915,149877,189108,-60631
163,-208665,111215,94807,-557021,-66212,140203,177838,-56881
163,-197768,105445,89348,-523174,-62432,128813,167057,-53400
163,-183488,96531,81345,-495275,-59136,133190,158128,-51233
212,-174706,94239,76567,-465306,-60031,118374,147958,-47564
212,-164894,88467,72360,-437261,-55076,111640,139314,-44512
212,-153640,81970,69864,-410953,-47853,104828,131371,-41957
212,-146384,77203,65810,-386421,-45116,98185,123731,-39291
212,-136635,75404,64492,-359587,-44129,74029,114534,-36470
212,-129344,70813,60451,-338674,-41562,70824,107809,-34272
212,-120150,66745,56859,-318591,-39152,66288,101374,-32079
212,-114085,59892,50907,-304040,-34931,81924,97292,-31584
212,-107475,56691,48436,-285254,-32812,73855,91351,-29597
212,-101308,53054,41515,-269335,-35064,70774,86066,-27678
261,-93970,54110,45412,-247047,-30662,43331,79314,-25276
261,-88413,51595,43002,-232419,-29524,38198,74318,-23804
261,-83286,40909,36369,-226202,-27214,66627,72387,-22929
261,-78451,39093,34305,-212246,-25490,61095,67893,-21526
261,-75018,38486,33229,-199097,-21085,55793,64058,-20649
261,-69195,36455,31197,-187417,-20274,52191,60234,-19328
261,-64766,34856,29446,-175843,-19638,47259,56391,-17906
261,-59696,35410,30207,-161772,-18766,28851,51456,-16457
261,-56433,33495,27976,-152274,-17691,27929,48482,-15344
261,-54705,28358,17990,-147523,-18339,42655,47377,-15203
310,-51908,29645,23141,-135437,-18851,24740,43351,-14476
310,-48490,25035,19185,-131172,-17463,38054,41895,-14474
310,-47636,24954,19765,-121804,-13176,33530,39534,-12204
310,-42838,26994,20460,-109938,-13352,14479,35859,-10918
310,-39940,26514,20063,-102266,-13388,6740,33016,-9976
310,-38166,16804,16717,-103499,-10662,35961,33248,-10001
310,-35891,16089,15634,-97043,-11241,32484,31279,-9312
310,-32737,16544,13804,-91755,-10331,30589,29847,-9036
310,-30964,15571,13485,-86351,-9662,28742,28059,-8545
310,-29403,16415,17386,-77107,-3219,10348,24495,-7619
359,-28389,16586,15577,-72295,-12124,7700,23152,-6304
359,-26549,13030,12794,-72371,-10216,21279,22795,-6542
359,-24162,11479,9970,-68203,-7576,23438,21937,-7129
359,-23536,11147,9667,-63445,-7258,20784,20584,-6875
359,-20692,11165,9813,-58916,-7038,15968,19092,-6454
359,-21495,13760,11589,-50996,-6340,-2523,16728,-5336
359,-19263,12723,10948,-48283,-6301,-2752,15442,-4833
359,-18326,8275,7107,-51124,-2417,22434,16789,-5799
359,-18664,7889,6948,-47975,-3128,20548,15638,-5354
359,-16719,6854,6673,-45364,-3647,18862,14793,-6207
408,-17277,11841,9683,-35600,-5276,-10220,11020,-3310
408,-15007,10055,8394,-35288,-5242,-4192,10812,-3278
408,-13104,10459,8496,-32004,-5659,-7739,10249,-3984
408,-13843,8396,6923,-32996,-5303,990,10243,-4065
408,-13223,3151,2957,-37508,-3884,26192,11627,-4707
408,-12191,3840,3335,-32742,-2776,18506,10899,-4543
408,-11818,3857,3250,-30552,-2713,16283,10065,-4158
408,-11482,5727,4667,-26162,-1497,6054,9047,-4374
408,-10327,8342,6283,-21125,-2639,-8739,7425,-3634
408,-9172,2393,2873,-25985,-1657,15338,8898,-4221
457,-5990,2881,2713,-25061,-2410,13064,7976,-3886
457,-5315,2586,2410,-23422,-2161,13223,7725,-3794
457,-8047,2929,781,-21184,-506,12393,7364,-3343
457,-6135,2878,888,-20021,-833,11705,6949,-3239
457,-6990,3089,1090,-18725,-2075,9925,6571,-3105
457,-5499,261,378,-20167,-2111,19249,6706,-3257
457,-5187,1214,716,-18006,-1878,14966,6141,-2901
457,-6769,596,1899,-15928,-624,8435,5183,-2827
457,-6068,1105,1857,-14630,-686,6854,4779,-2552
457,-4609,5519,5897,-8154,401,-15343,3020,-2212
505,-4879,3846,4798,-10441,-1137,-7545,3043,-1968
505,-5139,3438,4668,-9947,308,-5966,3004,-1477
505,-3765,542,489,-12370,-511,8545,4198,-2076
505,-3398,777,401,-11565,-595,7968,3978,-2085
505,-3096,1370,784,-10068,-740,4341,3523,-1922
505,-3362,1168,357,-10356,-515,6751,3429,-2644
505,-1737,1087,431,-9612,-496,5749,3280,-2546
505,-4819,-2827,-650,-13363,-34,21077,4118,-2090
505,-4560,-1506,-104,-11150,-376,14932,3547,-2057
505,-3040,1684,-451,-8555,-2447,6634,3019,-2193
554,-1846,5288,1987,-2400,-2306,-15712,597,-894
554,-3470,1636,667,-5531,-2288,-4628,1218,-1383
554,-1110,3130,1699,-4880,-1491,-5785,1218,-1112
554,-1498,5867,3930,-183,-1807,-21374,-14,-547
554,-2797,7705,5705,2580,-2267,-32375,-1000,-139
554,-1735,485,-1632,-7589,904,10851,2305,-1273
554,-1479,349,-884,-6562,1624,8356,2080,-1103
554,-2864,-1639,125,-6206,753,8405,1852,-1338
554,-1177,-1447,225,-5794,742,7473,1740,-1251
554,-2321,-1974,791,-7102,1842,13401,2298,-1684
603,47,1915,476,-2718,-274,-5048,775,-775
603,-275,-1041,-2054,-6394,230,9992,1938,-1010
603,-1765,436,-2698,-4782,-1715,6007,1548,-1135
603,-1915,438,-2209,-4233,-1116,4870,1301,-842
603,-2102,950,-1054,-3069,-625,1165,883,-468
603,-386,5553,3737,4328,-2170,-26993,-1559,496
603,-76,6117,4389,4955,-2609,-30636,-2002,605
603,-2084,-1412,-3813,-5739,-6761,10995,1759,-943
603,-565,-1231,-2489,-5022,-2885,10123,1574,-891
603,-533,-1228,-4812,-4296,524,8163,1446,-1079
652,-2043,3244,3186,2551,497,-16485,-652,525
652,-541,3644,3316,2318,-217,-17613,-818,479
652,-1526,3195,2720,1105,-398,-13981,-564,402
652,-1824,-3771,-1636,-5911,852,17490,2303,-1410
652,-10,-2889,-1425,-5114,219,14722,2046,-1434
652,-395,-1692,1502,-3791,2379,8688,1354,-756
652,-1484,-2011,1495,-3418,2319,7733,1220,-596
652,-1025,6468,1243,5074,-4143,-26944,-1705,0
652,570,2798,-91,-407,-1565,-8090,-349,-640
652,480,-2139,-2825,-5950,1139,16329,1634,-1353
701,-1757,679,-1500,-1239,-514,-3060,220,-1178
701,-307,-1754,-3334,-4566,1,10829,1405,-1733
701,-1161,-270,-1875,-2098,261,3598,1014,-1468
701,1732,2101,2762,1772,1059,-11054,-271,-1110
701,448,1701,2562,1414,1400,-8792,-184,-1054
701,-1432,-2606,-1323,-4047,4236,13887,1856,-811
701,-925,-2200,-386,-3121,4237,11154,1584,-712
701,517,-530,-3778,-2993,-119,7891,1300,-1299
701,2119,-100,-4117,-2585,-255,6707,1116,-1245
701,1781,691,-3524,-1591,-467,3083,666,-786
750,506,896,1661,586,430,-5262,220,1038
750,-939,-2166,-184,-3355,1249,11305,1515,278
750,586,1984,2845,2296,814,-9436,-93,1039
750,131,-2512,692,-3415,1280,11183,1482,196
750,331,-2191,851,-2809,785,9326,1317,204
750,533,2961,242,2254,-577,-12576,-427,547
750,1551,2418,376,1772,-498,-10511,-365,581
750,-1766,-2663,-1695,-3467,-51,12449,1679,328
750,-1593,-2156,-708,-2976,129,10752,1520,76
750,140,-774,2048,-2028,2727,5914,859,779
799,-76,5925,2050,3339,-428,-15214,-461,1463
799,-1701,6011,2149,3559,-1137,-18388,-923,1581
799,694,-4315,-9544,-7672,219,25886,2521,324
799,548,-3006,-7682,-5718,511,20570,2237,298
799,158,-1540,-4953,-3764,481,13392,1646,570
799,2926,-1846,-671,-2474,3145,8095,1419,-1199
799,2847,-1601,-199,-1832,3585,6228,1231,-1416
799,-3342,1697,1709,2107,992,-13843,-999,3246
799,-1976,1102,1029,1667,-2404,-12269,-959,2982
799,319,-1902,855,-2273,4471,8731,1328,824
848,-491,1216,1987,1217,-491,-9386,-429,1808
848,-2204,-1735,306,-2610,1334,6440,772,1332
848,-1264,-1615,-410,-1596,777,5950,784,1179
848,455,-1338,-311,-1289,549,4655,710,1058
848,754,-608,155,-274,209,958,407,1219
848,-397,-1484,-1184,-2835,3053,10909,1227,272
848,937,-910,-773,-1876,3263,8086,986,359
848,602,-1691,1834,-1251,1685,6028,807,475
848,573,-1537,1768,-1057,324,5292,683,457
848,890,2739,565,2966,-533,-14647,-1024,702
896,-1913,5877,4907,8188,-311,-33035,-2648,2441
896,-2205,3156,2971,3414,-585,-18623,-1628,2069
896,-477,-1576,394,-2030,3274,8688,934,182
896,579,-1162,313,-2037,2199,7761,930,110
896,-208,-286,171,-1073,1034,3949,738,15
896,-1159,-1984,-2982,-1837,-13,6436,902,915
896,225,-1236,-2094,-1209,93,4207,731,905
896,-320,-3448,-2004,-4759,716,18312,1833,926
896,205,-2778,-1760,-3631,325,14605,1571,898
896,1214,-1047,-1080,-1888,1072,5797,1018,615
945,319,-324,126,-1077,784,1417,248,1610
945,43,-1418,-75,-2105,1146,6866,725,1340
945,-2753,5765,4735,7865,-154,-31794,-2442,3094
945,-2190,5197,4243,6666,422,-28328,-2247,2822
945,-1422,2905,2871,3351,2547,-15899,-1250,2204
945,-1495,-2672,-535,-2102,1785,10667,1428,823
945,-1272,-2369,-1282,-1847,-1820,9282,1248,850
945,722,-860,-4233,-2033,-1610,7509,1032,588
945,136,-1075,-2330,-1325,-1761,5090,633,989
945,615,-2694,707,-2015,-1385,8610,1051,427
993,-1456,-830,-664,-770,-200,2146,534,682
993,-1202,2354,1370,3311,-1361,-13721,-668,1187
993,1941,816,-1185,-2586,1899,8282,1279,124
993,1720,1282,-968,-2292,1457,7423,1141,233
993,104,2301,-454,-1337,609,3764,765,450
993,364,3772,2831,5485,-800,-22302,-1876,1576
993,1342,6008,4214,7830,-1679,-32885,-2790,1637
993,-125,-3025,-2789,-3337,971,10902,1054,1102
993,-934,-2966,-2723,-2923,698,9776,805,1282
993,-681,-1290,1581,-2020,164,7982,784,1651
1042,-1012,4807,-115,4980,265,-18557,-1314,1373
1042,-1184,3046,-509,2626,-434,-11415,-835,1184
1042,-376,-3157,-3657,-3114,692,12527,1223,713
1042,-1231,-2544,-3274,-2470,486,9943,934,707
1042,-128,-1615,-2305,-1391,284,5550,537,745
1042,394,-1646,-2436,-2432,-394,9047,1048,-409
1042,-778,-1141,-2238,-1839,-619,6864,857,-405
1042,1186,3265,-7612,790,-894,-6428,-666,238
1042,1271,-843,-10779,-3549,358,11418,827,-468
1042,-880,-1991,-3039,-2022,-1701,6603,680,-162
1091,-1442,877,4229,2827,-1774,-14393,-1554,1087
1091,-1349,-2273,2625,-1729,455,2390,-303,485
1091,-796,3463,10061,4232,4536,-13857,-629,624
1091,-1042,3515,8478,3455,2532,-12910,-728,561
1091,-962,3150,4845,2498,-1449,-10189,-598,514
1091,-613,-2830,-1447,-3058,-860,10343,824,-178
1091,-465,-1998,1204,-1836,-447,6124,536,-4
1091,-1664,-1580,1164,-3138,-1561,10304,1197,42
1091,360,-844,1349,-2664,-2397,8769,1067,-170
1091,-729,5684,2097,7116,-4438,-29691,-2753,1048
1140,-560,-2264,3544,-1341,6303,4632,490,-690
1140,673,-3443,1568,-3379,5245,13046,1220,-851
1140,263,-2461,2327,-2515,2333,8541,947,-1606
1140,413,-2447,3525,-2129,2103,7221,711,-1071
1140,1803,-1997,4609,-1376,2002,4793,510,-709
1140,919,2818,2923,2271,-376,-13320,-997,5
1140,661,2141,2192,2127,244,-10484,-892,106
1140,-431,150,-5246,161,3766,9920,708,-332
1140,794,44,-3808,-46,4753,7324,557,-385
1140,304,-1659,-2123,-3076,-4733,8677,1331,-2364
1188,-1670,1369,2433,-2199,459,-11873,-926,419
1188,120,2733,4563,75,2787,-18853,-1531,753
1188,948,-1195,-2286,-1240,-2587,10353,1188,-818
1188,663,913,1751,1740,-2348,-2297,144,-304
1188,200,-1977,2053,-2266,56,10755,1140,-680
1188,-691,-1836,-1089,-3090,-1588,9197,1176,-1002
1188,84,-3315,628,-2166,-1180,6695,750,-648
1188,627,2007,-1065,1870,2916,-5901,-81,-332
1188,36,3422,791,4340,707,-17196,-1066,175
1188,-308,-2245,-4578,-2058,-642,9266,1039,-573
1237,519,1151,-1298,1048,-3714,-6223,-392,-337
1237,749,-1360,287,-1121,3398,5753,835,-665
1237,1454,-298,532,-1919,2746,8089,1130,-1668
1237,272,-199,59,-1755,2587,6984,1000,-1457
1237,1668,-55,-16,-594,2820,2946,511,-1112
1237,2470,-1987,3133,-4073,-2064,14484,1509,-344
1237,19,-609,-1651,-3163,-3963,11366,1337,-288
1237,-394,-1780,197,-1503,1732,5626,908,-344
1237,-556,-1670,-275,-1383,-282,4865,663,239
1237,717,3898,-1632,4463,-2036,-18205,-1250,271
1285,-1235,1754,1874,2631,1883,-9212,-275,-149
1285,-899,1500,3686,2551,2936,-7869,-299,197
1285,-1659,-3213,433,-2277,3675,8646,1135,237
1285,-1430,-2101,357,-1528,4963,6585,914,354
1285,-612,-1410,-3234,-1860,3801,6144,926,115
1285,563,-914,-7387,-1581,3063,5038,811,169
1285,-1283,-2836,3304,-1166,435,8604,669,114
1285,-808,-3166,1638,-898,-1104,7444,641,26
1285,550,-3083,-834,-259,-1111,5281,675,-128
1285,-1057,-605,-4323,-1061,2907,3426,485,15
1334,1290,27,1133,-246,1000,-1444,-161,-4
1334,743,-1267,1514,-1124,2184,4039,257,-252
1334,254,493,12636,3548,8474,-10122,-838,808
1334,-1184,650,12128,3765,10063,-10717,-852,693
1334,-619,-652,-3670,-1213,2788,5576,839,-188
1334,-529,-55,-2234,-583,1473,3276,701,93
1334,-280,-219,-3004,-48,3583,4221,598,-67
1334,1259,-455,998,-123,3262,3597,699,-107
1334,1243,-447,5380,832,3400,-246,386,84
1334,2845,205,-3345,-2524,-1168,7394,938,-479
1383,628,1688,-3123,2391,2133,-8122,-878,1190
1383,-756,-800,-7517,-903,2899,5240,258,834
1383,-200,-1718,5142,-22,808,2323,122,598
1383,1422,-1457,7120,669,4172,1262,123,524
1383,865,124,16643,2418,10053,-8620,-665,1042
1383,-284,1785,9239,3581,1310,-13442,-1100,1195
1383,1497,6573,1747,7903,-10158,-32271,-2593,1729
1383,-739,-1438,2569,-1781,3346,7876,719,-275
1383,-819,-1005,2814,-1835,4439,7293,599,-227
1383,-1070,-2842,10532,-1849,-7138,4606,71,387
1432,91,1429,13044,5265,9894,-19208,-1416,560
1432,-67,23,15319,3505,8235,-12435,-1164,516
1432,2384,-1039,2818,-3374,5722,12029,1021,-671
1432,2126,-275,427,-2833,2138,10095,979,-413
1432,-637,589,-15962,-871,5115,4815,259,-268
1432,-819,-46,-13865,-1588,-8751,4205,230,-77
1432,-18,-468,-10637,-1816,-19730,2267,6,351
1432,307,4877,7959,2920,10873,-16658,-487,-687
1432,1087,6602,8711,6195,7344,-28970,-1829,149
1432,918,-2891,1558,-2996,648,7121,423,-750
1481,404,-34,30714,5361,20933,-12947,-688,-938
1481,466,-1298,22175,1781,18654,-2536,-39,-1072
1481,930,4633,1548,3960,-2440,-16714,-1077,943
1481,790,3135,1955,2400,-2468,-11763,-882,624
1481,876,-3038,4159,-2851,2559,13371,776,-1095
1481,678,-2448,-1552,-2841,-603,11859,522,-850
1481,-304,-1259,-4615,-2699,-3371,9397,556,-907
1481,593,-265,8135,-1616,5494,6444,1004,-1550
1481,1994,-487,6567,-1169,5364,5128,661,-1320
1481,1498,-2247,6293,-3696,831,10276,928,-1696
1530,-232,-1414,14195,137,-7960,-7625,-916,-160
1530,-1428,-3922,7889,-3709,-6952,7783,277,-806
1530,249,-1426,10153,-2507,1397,6709,909,-967
1530,-1113,-2204,10088,-1507,3481,5818,863,-1155
1530,-33,-1179,9654,185,4096,1918,584,-1555
1530,-147,2540,9810,4450,5225,-16102,-1757,255
1530,1220,3032,3883,4149,10602,-14451,-1454,77
1530,1621,-729,8123,-2846,-1023,9548,1160,-1482
1530,1612,-1288,11457,-2285,884,8720,1015,-1267
1530,746,-2044,19056,-1204,-1103,3041,377,-1309
1579,1732,4732,18587,6172,6720,-19781,-1412,-743
1579,1058,4629,15683,5827,5133,-20913,-1755,-567
1579,1563,-2133,13738,-4533,-380,15487,1876,-2854
1579,-216,-1932,6171,-3787,411,13231,1700,-2685
1579,-906,-1549,10607,-1518,5697,7945,1144,-2374
1579,-1513,-4034,29401,-5,11450,3972,-57,-1505
1579,-610,-3771,25439,613,16467,2836,-450,-1127
1579,1060,3126,21673,4278,-3293,-16042,-1708,-1638
1579,398,1578,25044,4316,-1438,-15490,-1814,-1235
1579,961,-3181,22154,-810,16650,10109,544,-2385
1628,-939,2563,19794,-932,-6174,-5665,-327,-2186
1628,-925,-882,22175,-3980,7291,8253,736,-2585
1628,-1806,-2552,26495,-2602,-10772,4505,1,-2114
1628,-1778,-2743,22647,-2283,-12194,3531,-125,-1903
1628,-5,-2091,18883,-1153,-9203,-461,-446,-1546
1628,-1359,-3621,27024,-2408,1010,11856,395,-2070
1628,-1260,-2220,23547,-1602,-949,8414,178,-1845
1628,37,-49,36287,-966,7944,3541,248,-2800
1628,-134,115,33122,-616,6648,3362,230,-2620
1628,1802,-196,60221,6200,19201,-16610,-1407,-2469
1675,3557,9708,22427,1203,-28371,-16050,-496,-3125
1675,3196,8673,21414,-438,-20320,-11724,-252,-3027
1675,-497,-2231,37839,-875,6522,6371,586,-3322
1675,-670,-2247,37168,-245,6282,4479,256,-2851
1675,-729,-3319,46475,-5466,-11716,4005,514,-2804
1675,1430,-220,32070,-4146,-11914,3720,1010,-3250
1675,1082,4410,19106,-2964,-16229,1496,1374,-3568
1675,-1699,-6886,37657,-2465,-2708,17059,689,-2334
1675,829,-3366,37578,-1185,11752,12170,878,-2675
1675,-190,-4773,46455,1074,11418,757,-380,-2213
1724,-293,5017,31359,-134,-16445,-8004,-717,-2163
1724,1631,3982,34416,1048,-3114,-2205,162,-2536
1724,1009,2567,45910,5508,-4347,-12234,-703,-2260
1724,-271,3844,57385,10073,-5176,-24649,-1635,-1753
1724,971,-3779,62601,-3276,8640,7129,499,-2481
1724,375,-4333,63423,-1325,14668,5107,49,-1917
1724,-116,-4159,61794,1359,14112,2034,-579,-1421
1724,1424,1202,35946,-731,-14416,4092,926,-3099
1724,-359,1196,38204,-991,-13150,3451,667,-2728
1724,1187,219,55240,-2043,6114,6096,1054,-3427
1773,-3368,-2551,74414,5902,-11849,-19262,-3279,-241
1773,-3995,-6875,72259,2213,-2723,-3393,-2262,-350
1773,-1264,-7258,80611,-3697,16940,3675,-500,-2240
1773,615,-5350,73496,-304,22783,2118,-498,-2284
1773,-311,1301,60893,10807,-13226,-17048,-3276,-130
1773,-1510,4570,44038,15389,-20536,-33724,-4728,763
1773,-444,4382,51690,15271,-16457,-42136,-5576,1241
1773,-190,1772,43126,-4745,-12801,9257,799,-2234
1773,-722,206,46254,-3224,-8375,5953,-3,-1434
1773,341,-1982,44216,-660,9977,4532,-177,-839
1822,1128,2841,81464,3264,2679,-20074,-2118,147
1822,-946,-644,72425,3066,4137,-14316,-2290,615
1822,1693,1041,68311,-7297,-16271,14425,2985,-3168
1822,1653,2138,56734,-9626,-10542,12635,3160,-2808
1822,1210,2980,46613,-6050,-6374,7392,2594,-2261
1822,1439,4532,73578,-649,28845,8009,1358,-3294
1822,1795,1994,78804,-1807,24411,6781,840,-2617
1822,839,6970,58555,12877,-7411,-31983,-3594,-1241
1822,813,4068,63393,5411,12019,-21423,-2709,-1523
1822,-1673,-3938,65474,-3966,-8532,7593,-399,-3410
1917,-380,-2170,44623,2835,-28978,5958,-853,-3644
1917,-1444,-5777,49909,2341,-18132,5607,-993,-3261
1917,3302,3450,50494,-2695,-54722,4436,1519,-6505
1917,2553,3550,44399,-6490,-64031,5498,2061,-6509
1917,-309,-1060,67328,-815,-42492,3728,669,-4942
1917,154,-315,60203,-353,-37556,4340,1275,-5217
1917,-1384,-9273,76958,1909,-35903,2461,-1364,-2396
1917,-4118,-15265,79430,6051,-16986,-963,-2703,-877
1917,-5748,-12888,73040,8338,-4262,-5529,-3109,-531
1917,237,1203,17534,6197,-38184,1081,-402,-3175
1966,-534,10078,70055,341,-77254,-15534,-1190,-2780
1966,135,8156,54025,-3840,-70697,-6339,202,-3278
1966,69,3720,54093,1393,-43777,-17428,-2656,-843
1966,-902,5090,51550,6222,-64927,-27008,-2964,-584
1966,-244,-2961,51519,4397,-6671,5508,-877,-1891
1966,1328,1522,63721,-2001,-30383,7903,756,-3140
1966,-4564,-16580,55882,5239,15515,936,-1387,-527
1966,-4637,-13119,56314,276,-6104,1319,-984,-803
1966,-448,7913,-29805,-2160,-39266,7927,833,-2457
1966,349,5998,-10538,-9958,-31569,10044,2062,-3194
2015,2047,4031,42175,12048,-14293,-13266,-213,-2633
2015,-1184,-5845,63360,3076,155556,3871,-589,-1218
2015,785,-2157,53267,-2266,144574,5172,1433,-3008
2015,2997,2010,42721,-5786,103162,2161,1868,-3244
2015,-3621,-5896,31942,466,-481346,-18757,-4197,3128
2015,-4443,-5842,39512,10515,-1174156,-31903,-5207,3711
2015,892,1589,13654,-4114,2252479,11180,2754,-1768
2015,-712,-1422,9125,-2039,2031535,6012,1106,-494
2015,571,-4140,32595,7575,1979267,2610,-254,868
2015,443,-5587,40476,3425,1839265,2077,-246,1021
2073,-1405,4956,37128,329,-271780,-18349,-1539,1827
2073,-1104,-1601,17501,-6591,1792361,9260,277,1163
2073,594,-320,21337,-7669,1678008,9163,667,701
2073,976,5813,22967,-8879,1810242,5822,297,485
2073,1035,6315,19401,-3531,1724616,5882,624,-43
2073,1453,7010,14075,791,1596975,5655,1122,-457
2073,44,3510,18411,-13913,1029619,11289,1295,271
2073,409,-1112,16430,-15130,1146573,8799,1107,405
2073,-284,-3949,22547,-309,1629566,2517,-321,1312
2073,74,-2452,28146,843,1507681,1151,-490,1150
2122,15,3952,36731,2460,-393409,-22113,-2118,2179
2122,1313,498,34710,2816,-175762,-14107,-1367,1831
2122,809,23,33841,4950,-234381,-13992,-1389,1833
2122,-29,-2251,33199,-3052,1657242,9525,906,958
2122,2552,1311,41532,-4052,1511185,9172,1711,60
2122,-1547,-173,9550,597,1726052,4395,-459,2281
2122,-171,2024,-9523,-8681,1620850,6655,525,1357
2122,2141,3163,-14945,-9540,1432196,5718,1101,605
2122,-1798,-2354,12072,-11100,213194,-5670,-722,3056
2122,-3258,-4898,8452,-519,1173889,6715,-320,2698
2170,3183,10465,-1730,3358,277191,-15084,-482,542
2170,3036,8288,-16031,-2185,515820,-4195,108,160
2170,2376,4628,-17455,-4310,990244,3762,749,7
2170,-1115,6066,10938,13561,1115719,-8597,-2695,2813
2170,-3006,7540,11169,13658,35871,-24195,-4480,3903
2170,1891,9,1813,-1264,1503542,12391,1684,-167
2170,1394,77,6267,1531,1426046,9919,914,263
2170,975,775,9817,6334,1244590,6019,583,396
2170,-1189,4764,12872,-3982,1559831,3630,-1531,2445
2170,-728,2553,15851,4472,1478344,2320,-1265,2055
2219,-1878,-1817,39474,-9311,377363,-1080,80,1144
2219,-603,-2374,28504,277,849947,503,-354,1424
2219,-831,4558,12600,4642,-242988,-15924,-1270,1573
2219,-2009,-3938,-3389,1361,1464394,4689,164,1067
2219,-945,-4435,8529,4668,1377953,2332,-514,1608
2219,1485,3726,-3578,-5603,595083,-6903,544,719
2219,232,6181,4330,-1368,-224831,-16410,-313,983
2219,569,6037,3733,-29,-251569,-12991,-196,785
2219,-1716,-2336,-14146,375,1390912,8099,118,1219
2219,431,-1517,-8647,641,1266070,9806,1433,434
2268,-322,5456,2771,7653,-216325,-20962,-1895,1968
2268,-886,2807,8177,6086,-430041,-18358,-1850,2073
2268,289,877,9580,4052,-314887,-13533,-1686,2048
2268,-2185,-4874,-2699,-1851,1209431,23459,1179,1227
2268,239,-4000,5415,1153,1235440,18900,1366,641
2268,1065,6274,531,13965,1538989,6393,934,-254
2268,557,3862,7313,14115,1415436,4469,432,137
2268,1930,3768,9259,12910,1112897,579,-212,643
2268,-2387,-3899,9259,3634,-75732,-19694,-3083,3480
2268,-2884,-5337,9044,3833,-74459,-16596,-3446,3749
2317,745,1241,-4759,2514,547446,-528,-38,1235
2317,-832,-920,-176,5006,1157160,9066,614,949
2317,-1325,984,2937,8802,626556,-4254,-606,1701
2317,-810,-7550,1568,3411,1485228,5722,326,1244
2317,-940,-7553,-400,4889,1386828,4326,-5,1473
2317,-1468,-6329,5112,982,1002866,18807,1368,734
2317,-1692,-4723,6559,-5312,1047565,16471,1420,766
2317,-1322,-3620,-193,-8796,983735,13836,1537,785
2317,916,-354,-2622,-440,1298667,3739,-371,1684
2317,96,-2920,1625,-3248,1210789,3005,-649,1993
2364,3098,9754,-8075,8695,-801479,-18341,-569,1034
2364,1079,8662,-11567,5697,-611556,-12227,-60,879
2364,435,6443,-8171,4327,-486895,-9891,-38,910
2364,-2177,-8931,19771,-1271,1321655,8459,776,2010
2364,-1248,-6765,-4525,-1756,1118238,6220,1028,1471
2364,2128,-1067,15522,3142,1326226,6426,619,989
2364,2044,744,3549,797,1219348,4730,431,1091
2364,-2595,-5046,-7586,-7162,953861,13957,-97,2660
2364,-1486,-2758,-4877,-4351,1003370,10858,-40,2278
2364,457,-832,-1933,-1863,918291,7124,-9,1751
2412,2718,10534,-26749,-437,-106792,-17217,-1070,1542
2412,34,6654,-33468,-1913,373216,-3166,-822,1764
2412,366,5887,-34887,137,671028,39,-890,1990
2412,-305,2450,-3839,596,-285560,-11344,-1265,1632
2412,-716,1894,-1107,2000,-400057,-12738,-1412,1564
2412,-627,-5114,-8823,14251,1223558,3957,-998,2264
2412,-1790,-3690,-2663,9605,1112773,4005,-534,1801
2412,-2562,-6241,27788,-6112,1324124,4897,-721,1675
2412,259,-2330,3774,-3244,1142028,3655,87,651
2412,-193,-2068,1288,-2291,897475,1107,269,435
2461,1736,8576,4642,2829,17843,-14417,-1614,1624
2461,752,3781,7882,369,94836,-6461,-1470,1875
2461,31,152,8607,-1134,715612,4963,-855,1681
2461,-1082,-1651,-4520,-2205,1145479,4773,243,989
2461,-1155,-1509,-855,-505,1000265,2655,3,1003
2461,-1856,-578,4311,16230,-301048,-16442,-3134,3203
2461,-2103,441,2205,16073,-339384,-15183,-2965,3128
2461,-427,361,-15579,-3105,1130114,8150,203,1301
2461,1338,2640,-6186,5468,1064279,7242,241,1016
2461,582,4054,-1711,7057,933435,4764,179,892
2510,171,578,6976,260,-375197,-20465,-1333,1065
2510,-234,-727,2600,-457,-473210,-14672,-842,691
2510,1420,-219,-1685,-1381,-361013,-9896,-441,416
2510,-1018,-3143,3744,-5355,1135735,10127,768,738
2510,-837,-3006,8006,-6437,1064874,9652,1071,569
2510,259,-1728,1105,1669,1126843,4826,-131,1262
2510,-135,-2387,4638,-752,1004928,3596,-185,1492
2510,-1760,3478,-3916,-7527,-267286,-10682,-130,1776
2510,-369,4451,191,-12194,-306373,-8598,182,1008
2510,1659,5407,-428,-12473,-422710,-8555,205,621
2559,-2501,-4576,-10528,3919,479233,3519,-1241,2179
2559,-1315,-9619,-9753,3248,849211,8364,-1057,2243
2559,-1187,-6496,3068,7510,235456,-8478,-2122,2675
2559,-942,-3614,1772,9707,1144090,6022,-32,778
2559,937,-2537,7321,11700,1037554,4874,58,573
2559,-1070,-8498,-4074,-2422,905945,10335,463,546
2559,-20,-10369,3679,-4062,840491,8022,235,610
2559,-1563,-4405,19080,-1932,1001265,5622,398,696
2559,149,-3671,12212,-3638,915230,5824,851,486
2559,329,-2693,4836,52,728193,1725,313,895
2606,1220,11680,10312,2885,-1659867,-36687,-2853,1917
2606,2193,7755,11336,510,-1350988,-19113,-1952,1606
2606,-2178,-2775,-16953,-2496,1034025,9569,678,859
2606,-1696,-2713,-12202,-1352,992403,8665,729,730
2606,-672,-1831,-6002,946,836777,4299,401,715
2606,-1872,-4998,3025,16116,1105959,-385,-1926,1463
2606,-511,-5489,4389,8865,1031170,1397,-934,1127
2606,-564,-2784,-12371,-5731,593445,15554,570,924
2606,-1505,-2357,-5495,-2345,581419,10850,209,923
2606,1777,5815,-27093,-3185,909181,8385,1331,-246
2655,-687,-1058,-626,-2087,220589,-1565,-299,654
2655,506,-2018,-4534,-3796,556389,5773,360,403
2655,-28,2811,-3421,1434,137975,-10341,-898,897
2655,-1073,3871,26780,6781,-1520588,-28188,-3566,2668
2655,634,2321,11211,3401,-1163804,-11838,-2014,1643
2655,454,2529,-19530,10955,953408,7323,225,274
2655,-1007,2184,-10674,6039,856004,5138,40,256
2655,855,2806,-13264,2376,1019335,9369,1539,-863
2655,634,1515,-7015,782,956880,7153,855,-169
2655,-1192,1018,-9600,-1861,804802,2119,-136,642
2704,-186,3838,-5704,-2388,200302,-3276,-188,674
2704,1870,2734,-10532,-4252,518640,11021,1358,-110
2704,589,4415,-11628,-5182,473302,3541,868,184
2704,-2070,-4950,445,-313,740070,608,-1236,2359
2704,-952,-2570,-7027,-8663,654114,1115,-298,1621
2704,720,4163,-6221,2960,-646242,-26766,-2674,3742
2704,1398,2838,-13301,746,-451507,-8756,-744,2457
2704,331,-3174,-14164,-559,495592,8158,664,1742
2704,-1478,-3783,-3946,-334,458837,6260,482,1903
2704,-399,4571,-24415,-2683,370580,5755,655,1252
2752,2843,7329,-18067,1613,315749,-9133,-91,1869
2752,1926,8290,-14769,3790,278006,-19317,-717,1937
2752,-820,-2798,-40636,-2688,237325,14335,1286,1821
2752,-2051,-747,-27681,-2399,217992,11179,892,2060
2752,-1027,1313,-21792,-1255,154736,6318,792,1402
2752,-1311,2483,-18521,-694,142044,4585,470,1616
2752,-1505,2321,-13467,-5043,126683,856,-25,1970
2752,549,-5985,14565,1548,44479,-9650,-933,2081
2752,924,-7351,-3546,-4717,60249,10126,743,1172
2752,142,-3666,-16258,-4173,16019,4329,-90,1624
2800,-368,4864,-20967,11019,-16401,-9403,-452,1961
2800,-376,4885,-16645,8663,-26217,-13868,-667,1722
2800,-1457,-6856,-3923,8038,-46721,2459,-1125,2776
2800,-2316,-5079,-7144,7132,-49602,762,-650,2284
2800,2963,4086,-29138,-4316,-93456,11311,1733,295
2800,3194,4753,-26386,-3592,-90931,9540,1489,361
2800,-1333,-5617,-7805,10738,-132515,2671,32,1737
2800,383,-4459,-10230,6982,-127275,3353,599,1213
2800,650,-1391,-13682,519,-124407,2440,1243,411
2800,353,2096,-19223,1994,-190817,-10330,-1498,2567
2849,-1130,-762,-29938,-4348,-179695,8243,123,1554
2849,-223,-983,-28917,-3450,-166672,9287,46,1612
2849,-2429,-4064,-18765,-2340,-197979,3525,-407,1375
2849,-1137,-1684,-23172,-2003,-189166,3583,64,710
2849,-369,-618,-20412,2961,-224584,2006,50,608
2849,-646,454,-19111,6632,-219372,-3790,-325,770
2849,759,2773,-13252,12609,-232134,-24032,-2362,1845
2849,258,1161,-25717,-7262,-237563,11146,984,36
2849,2,1993,-23072,-4385,-229766,6012,471,334
2849,254,-1648,-25103,-1404,-254473,3797,212,800
2898,-670,4787,-14068,5765,-291699,-23780,-2135,1783
2898,195,3010,-14042,6402,-273275,-17185,-1811,1728
2898,-443,-1999,-32365,-6136,-270305,23592,1895,55
2898,957,-2324,-31830,-2963,-256710,18684,1797,73
2898,-813,-1156,-36493,-3539,-283415,5686,458,693
2898,-1203,-1041,-39624,-2800,-268555,5013,371,877
2898,-912,-850,-35533,615,-256432,2249,-59,1011
2898,727,2948,-38983,2748,-292623,-5679,-41,256
2898,1125,6496,-33026,5430,-296669,-20836,-1154,753
2898,2229,2520,-37495,-1442,-291398,8062,1200,-319
2947,-1066,1647,-36045,1300,-311213,-10213,-959,1045
2947,-1207,-1051,-35836,-2692,-276081,6109,115,686
2947,1386,-165,-42589,277,-293889,6290,814,160
2947,859,915,-46418,-3084,-279066,5351,759,379
2947,139,-5504,-35851,-2295,-306230,18399,954,1030
2947,1315,-4655,-33443,-1221,-289874,13812,596,1220
2947,1346,-3430,-31283,-699,-276567,9630,333,1139
2947,-1807,-4222,-30509,6031,-299032,-792,-1414,2209
2947,-1960,-5408,-24591,7151,-286480,-3800,-1605,2325
2947,-122,4794,-40275,4322,-339546,-22169,-1900,2202
2995,1041,2738,-30467,6064,-329375,-15163,-1451,1352
2995,-797,1640,-27601,3903,-310132,-11696,-1042,1128
2995,859,-2113,-48840,-3523,-300314,6424,655,300
2995,-652,-2809,-42293,-214,-286457,3480,415,619
2995,1118,3892,-52968,-4902,-301852,4538,1098,327
2995,1305,2414,-48254,-4441,-286484,3246,485,645
2995,-639,1128,-39003,-977,-275727,-1415,-215,1052
2995,-917,-3208,-42790,-4927,-303964,15503,891,1178
2995,-574,-3610,-40843,-3474,-281607,14863,1136,834
2995,-564,-118,-40593,-1396,-297438,2983,667,799
3044,268,2426,-34107,823,-304544,-2968,-313,848
3044,-415,-624,-32714,-41,-278272,3252,41,1082
3044,39,2197,-35961,-1821,-324494,-13073,-1375,1226
3044,1108,1505,-31244,-1441,-310269,-15004,-1466,1285
3044,869,439,-37197,-1501,-288333,7208,1158,375
3044,-724,1659,-40027,-1023,-274051,5013,686,762
3044,-611,2205,-38461,-31,-264907,942,367,1118
3044,-203,-1717,-23517,-1616,-281775,171,250,1830
3044,-601,543,-29959,-921,-268653,-17,602,1193
3044,1118,-2691,-35493,426,-290170,7994,118,1593
3093,1401,2827,-30503,7312,-311083,-11801,-1162,1886
3093,-65,-196,-34825,5441,-275299,2849,-72,1018
3093,1149,432,-34941,-5153,-280833,5894,750,253
3093,-764,-542,-30687,-1903,-265948,3949,350,533
3093,954,2330,-28009,1065,-307286,-12547,-1522,1066
3093,-16,2556,-25218,3003,-298461,-18117,-1934,2161
3093,-1388,5718,-20477,7744,-306799,-35188,-3190,3084
3093,1023,146,-37031,-316,2670891,9471,1118,-861
3093,2523,4,-28197,-872,2581672,6090,641,-902
3093,891,-2413,-27990,3705,2972968,2781,-1578,2199
3142,-1286,4583,-30461,2885,2391211,-18701,-1340,1406
3142,-1405,2598,-29853,1454,2310204,-11508,-789,1740
3142,542,-652,-27934,-441,2519279,11835,1429,479
3142,61,-580,-25534,104,2370345,9292,1114,776
3142,3,-216,-22443,444,2230217,4592,578,1034
3142,1395,-1023,-32791,-703,2098372,7077,662,828
3142,-133,-1583,-30326,676,1974322,6176,719,771
3142,-184,-498,-27481,-1040,1385636,-54,-286,1128
3142,-1518,-2759,-27902,-3343,1775690,10343,587,692
3142,255,-450,-29082,2550,1064251,4838,558,-1379
3190,-369,-46,-29858,2542,54626,-2533,-176,-1057
3190,-144,2082,-23646,5651,-867322,-17916,-1560,101
3190,-539,1608,-31150,1148,-3395035,-10657,-1079,1420
3190,-776,2373,-26279,3785,-3864949,-18622,-1760,1881
3190,584,-2847,-31209,-9194,-4240517,10877,-39,41
3190,-936,-2020,-29480,-11802,-4079394,9858,-834,553
3190,-722,-1164,-27708,-8027,-3998547,5977,-1630,955
3190,2750,-76,-35495,-134,-4580586,6868,890,-701
3190,2658,320,-32555,-140,-4351088,6094,733,-829
3190,-1300,168,-24998,4583,-5087300,-9001,-276,-1664
3239,-54,-1394,-23883,-1329,-4533057,2284,-216,2272
3239,-436,-3698,-24224,-3401,-3934523,12033,394,1951
3239,1381,-317,-29229,-1490,-4268914,6242,1304,212
3239,1237,-5,-27917,-548,-4053956,4700,1093,278
3239,-509,692,-24447,989,-3911219,847,593,483
3239,3444,4136,-21073,6024,-4323202,-18556,-1645,-628
3239,2017,3435,-20642,4474,-3970237,-14043,-1363,-206
3239,-1018,-3975,-24345,-136,-3190489,9284,332,2
3239,-1348,-4252,-22431,270,-3017372,8158,255,-133
3239,1174,-1167,-28435,-8049,-2908364,7739,683,946
3288,888,4640,-24037,8398,-3058143,-21096,-1846,1986
3288,652,3918,-23299,7992,-2847824,-17551,-1571,1681
3288,-1538,-5938,-28654,-9886,-2294362,21722,1270,433
3288,-2829,-5562,-27224,-7170,-2154294,20799,1322,397
3288,-1602,-3638,-24890,-4011,-2098328,13014,731,550
3288,-229,-1595,-25049,-1306,-2073521,7084,970,-586
3288,497,-1474,-23728,-1537,-1962500,5623,752,-462
3288,2388,1675,-16089,5786,-2030647,-17352,-1713,754
3288,2224,1869,-14841,5620,-1894580,-14960,-1507,956
3288,1876,-1278,-23762,129,-1580508,8360,400,735
3337,-846,126,-21928,-3001,-1534962,-1508,-336,-282
3337,37,-1492,-20642,-4411,-1383350,7109,336,221
3337,-113,-639,-25861,5131,-1278308,4158,-42,118
3337,-960,-424,-25981,4088,-1202182,3608,-396,266
3337,502,583,-26391,995,-1152956,690,-591,421
3337,457,-2291,-25628,-3748,-913952,17555,231,-530
3337,1098,-2084,-24230,-2392,-862037,15329,-786,-528
3337,-457,-926,-22355,2527,-849999,4254,1397,-773
3337,-490,-153,-20384,5305,-808591,1041,1013,-537
3337,-976,3851,-13760,9687,-822439,-16988,-704,-223
3384,-144,4153,-12256,3635,-767490,-17100,-1200,90
3384,517,3035,-12610,3075,-698773,-11021,-660,24
3384,614,-2287,-16056,-777,-578191,4646,528,-145
3384,-720,-1932,-15185,313,-550101,2953,519,-25
3384,-645,-656,-18925,-1071,-469869,6255,1187,-706
3384,-1912,-714,-16303,-795,-436692,5598,1326,-1429
3384,-660,-767,-13001,-210,-412801,2878,1084,-2391
3384,653,4473,-11071,6453,-445179,-21301,-1569,849
3384,2500,-453,-14620,-2569,-338685,4424,537,-123
3384,-5525,-1144,-18806,-1678,-322506,7195,2549,346
3433,-1724,3307,-12316,4624,-354518,-15488,-471,2888
3433,-1870,935,-13693,1032,-295305,-3333,-293,1782
3433,1099,2418,-14170,1919,-279945,-7020,-4733,288
3433,137,1987,-12194,2308,-261816,-7002,-4485,840
3433,-2792,-956,-15260,-80,-189068,11001,3062,-884
3433,-2745,-609,-15599,54,-179162,8897,2639,-1326
3433,-835,-85,-15243,712,-175999,4998,1821,-1494
3433,905,-574,-15695,19,-169910,6345,1277,-1787
3433,-582,-561,-13508,709,-159539,5082,1104,-1996
3433,1394,-3723,-12969,-989,-122324,16041,1176,-161
3482,1516,1464,-8646,4272,-177994,-8223,-452,-1334
3482,115,-1673,-10554,2106,-130250,6778,528,-1312
3482,-137,-1236,-8565,2240,-140424,3826,939,239
3482,-1349,-935,-7771,2560,-134778,2478,1077,302
3482,5374,3771,-13614,2908,-181928,-5105,3580,-1540
3482,3853,3019,-9786,3081,-165620,-5034,2618,-1113
3482,3553,3184,-6639,4585,-158916,-8391,1137,-889
3482,-1790,-2934,-9565,2178,-104312,7603,3778,-2352
3482,-89,-2982,-8992,2699,-99025,5251,4428,-1661
3482,637,-814,-1108,-1265,-96730,5083,-2548,-3553
3531,1509,4740,-7544,8028,-136481,-20653,-3131,2687
3531,-124,4807,-5719,7058,-129750,-19860,-2642,2216
3531,-209,-3070,-8839,819,-61686,12450,-401,-3358
3531,-588,-2386,-8144,705,-59949,11073,-239,-3353
3531,-915,-1385,-7332,1463,-63364,7024,-341,-2957
3531,379,-978,-7044,3237,-59199,2865,276,-656
3531,60,-996,-6630,3964,-56931,1847,68,-277
3531,1562,1776,-6586,3401,-61489,-7829,-1087,-85
3531,2754,1849,-5363,3986,-59651,-9494,-1204,-409
3531,-382,-2999,3861,3300,10274,4354,146,832
3580,-155,1557,-9860,2801,-30353,-8044,-1364,-578
3580,-1339,-80,-15361,-2466,-15655,5480,-40,-717
3580,-1988,1049,-5320,3222,6525,-612,1098,-750
3580,-3077,3628,-1884,8571,-14169,-17027,-687,969
3580,-5362,2578,-1189,9112,-11078,-16824,-1410,1801
3580,610,-1262,-11113,-2485,31391,13872,3036,-1260
3580,2069,-1191,-8826,-1457,34038,11938,2553,-1320
3580,2603,-3179,-1701,2152,43609,6792,2178,-278
3580,1000,-2479,-904,2773,40716,4303,1899,-315
3580,2650,1749,-5312,2696,30894,-6380,-311,-2209
3629,-3343,-2128,-6381,-1014,50788,8983,957,1077
3629,-956,-2362,-5933,-432,48544,8575,802,693
3629,2213,-401,-6795,54,46497,5720,705,-3187
3629,273,-316,-6339,-122,43887,5443,750,-2696
3629,-1204,-450,-5365,643,39349,2962,12,-390
3629,5006,4421,-1895,6177,12918,-20255,-2171,-182
3629,4171,3146,-2182,4276,18500,-14830,-1693,178
3629,457,-2805,-7102,-825,65608,10754,-1322,17
3629,420,-1990,-6588,-137,59574,7848,-1838,510
3629,-3149,-1428,-8352,-624,62870,6372,562,-1162
3677,-396,-1604,2867,2875,60370,-9357,-3618,1946
3677,266,2234,4200,6631,37862,-25223,-4251,2101
3677,-432,2428,-3807,2353,60701,-14045,-1622,1436
3677,-150,1755,-3698,3301,57990,-11655,-623,1283
3677,393,3495,7,6895,46007,-21457,-840,1244
3677,519,-1246,-7885,-2549,80479,12177,1040,-750
3677,-565,-886,-7192,-1182,75609,9382,599,-305
3677,-1712,-2855,-1003,507,96580,6351,544,284
3677,-1117,726,1651,4486,76951,-8893,-434,584
3677,-1326,-4002,-4152,-1266,85405,8775,317,1891
3726,882,361,-9217,-952,76866,4929,815,-272
3726,1175,-840,-10689,-2152,77157,12178,872,-683
3726,2600,-1597,-6474,-1335,75957,6187,1552,379
3726,2459,-1094,-6119,-996,70843,5784,1490,-1184
3726,3796,-135,-5001,105,64034,2480,1038,-2129
3726,-1966,-2826,-8221,-5525,75186,16615,1686,2514
3726,-2546,-3486,-8084,-5237,73669,19140,2414,1020
3726,15,-1099,-5007,-1636,68936,6361,749,1951
3726,-510,-1119,-4225,-1183,64954,5296,570,3353
3726,-2848,12,-4416,-394,61794,472,183,2354
3774,-2040,2714,-3064,2184,48887,-13109,-704,2428
3774,-865,2160,-3443,1775,48251,-10664,-897,2197
3774,-2306,-942,-6709,-2591,63518,7593,376,1701
3774,-734,-472,-5905,-2590,60185,6356,-116,1338
3774,-1296,625,-4701,-1292,55082,2315,-490,1011
3774,-2251,-64,-5395,-548,53653,5819,4110,-818
3774,-1765,-11,-4782,-282,50950,5872,3760,828
3774,4610,-1468,-4181,-3276,58333,12107,602,1131
3774,5088,-498,-4619,-2022,52725,7628,215,1163
3774,-1680,-1173,-3849,-398,53180,1438,-3112,2221
3822,25,2788,-116,3857,40783,-12516,2851,1031
3822,1386,1817,-1135,1396,44008,-5295,2596,895
3822,-1697,2067,-551,3074,42729,-13109,-2818,2327
3822,-490,2343,-863,3517,40177,-14006,-1838,1485
3822,841,-2229,-4502,-2558,52704,8531,-189,3309
3822,-203,-2146,-4106,-2300,49249,7953,421,3032
3822,-3229,-1925,-3506,-2032,45029,6570,925,2935
3822,-2150,-722,-3400,-1685,47285,1437,-389,3980
3822,-2641,-765,-3112,-1122,46093,1329,-459,4634
3822,774,-2381,-4526,-4078,57788,13432,1151,1100
3871,850,-884,-3903,-1686,52670,7158,980,831
3871,9,-207,-3347,-111,45412,2417,425,1817
3871,-1078,155,-3668,-812,47367,3280,672,215
3871,-1366,-102,-3384,-663,47327,2768,597,330
3871,-1143,4584,1079,2988,39756,-14940,-1117,2588
3871,-1689,2624,327,2269,33401,-14163,-1042,2795
3871,-1881,1062,-135,2290,29306,-14076,-1191,2836
3871,-4286,-1499,-3983,-1504,49670,6220,865,2004
3871,-4439,-1409,-3619,-981,46775,5772,748,2834
3871,-693,-1405,-1507,-988,44182,3031,1934,2182
3919,433,2133,-1985,2212,39829,-8328,192,2575
3919,-477,4602,465,5386,31643,-21682,-1284,3669
3919,-360,-3770,-6945,-6409,49886,20768,-35,1109
3919,216,-3516,-6383,-5528,46876,19611,11,948
3919,-1981,-880,-3072,-2120,42326,5497,1479,-251
3919,-1095,-560,-4040,-2099,36164,7028,2407,-473
3919,-804,146,-3698,-1231,31237,5449,2700,-112
3919,155,3444,1182,2784,29947,-13098,-1092,3241
3919,-2002,2932,960,2590,29300,-10952,969,2747
3919,-2069,-764,-3320,-2399,37146,6026,-568,2298
3968,-2337,3288,187,4441,24669,-16174,-1254,1549
3968,-491,411,-1901,-246,31277,-1201,-184,2196
3968,-1649,-70,-3944,-2137,37068,5469,644,2429
3968,-1439,-775,-2405,-1024,35259,2883,262,2511
3968,-1574,-2814,-3179,-3165,50813,12982,863,1530
3968,-73,-1898,-2860,-2412,44994,10490,1047,1288
3968,-20,1176,-4480,-1781,39233,5648,1067,1309
3968,1132,1146,-3946,-1341,35943,4886,793,968
3968,1355,1266,-3048,-698,32885,3099,598,630
3968,-528,4165,-3384,2714,21930,-14009,-629,1803
4016,67,3267,-75,2232,27334,-12655,-723,1362
4016,-4997,-146,-3109,-2306,37856,8451,1925,2495
4016,-3178,122,-2684,-1897,35760,7212,1683,2660
4016,-1656,503,-1961,-1197,33215,4537,1225,2927
4016,-4735,772,-2063,-885,34696,3333,1150,-387
4016,-4163,365,-1633,-775,33013,3190,801,1598
4016,3167,-1920,-3913,-4029,40161,17197,1953,-85
4016,1517,-666,-3446,-3089,35593,13054,1554,217
4016,-1509,526,-2295,-455,31605,2684,624,654
4016,-2074,657,-2151,-399,29734,2303,512,1053
4064,-588,4636,609,4145,20679,-16678,-1170,2932
4064,103,2250,-180,1201,25497,-8725,-792,1556
4064,-7,2080,-214,1212,24221,-7974,-762,1478
4064,-112,4012,1146,3844,19035,-16628,-1472,1679
4064,-1521,-2546,-7290,-2843,23588,9186,646,745
4064,-118,-1982,-6787,-1848,21573,6634,423,830
4064,3044,45,-1386,-788,28926,3308,592,-1463
4064,3133,102,-997,-556,28319,2849,630,-1303
4064,-173,-438,-2459,-2442,29333,9388,1663,-1277
4064,-1905,-268,-2110,-1449,27140,6640,893,-302
4122,-1677,3234,1478,2794,16946,-14653,-3127,-1306
4122,1940,289,-795,-611,33022,5780,2305,-3856
4122,2949,806,-1119,-1177,28912,5761,2435,-4215
4122,2088,3713,574,2521,19394,-13462,-1178,789
4122,1057,3077,379,2106,18647,-11548,-1187,1430
4122,558,3023,449,2264,17150,-11810,-1215,1866
4122,-2454,-1525,-2705,-1522,26175,9246,833,-1414
4122,-1156,-1219,-2553,-1987,24464,8739,752,-1829
4122,2936,-181,-1992,234,24335,3311,1259,-1338
4122,2141,-171,-1780,365,22739,2640,1160,-753
4171,-718,2668,5,3093,18729,-7503,1018,201
4171,-757,1930,-401,1253,19288,-4354,1077,356
4171,-943,-548,-2278,-1501,22715,7054,1655,282
4171,-994,-1995,-2673,-632,22069,4779,619,494
4171,-1231,-1749,-2293,-340,20658,3692,545,466
4171,-1378,3710,-1534,1747,8310,-12938,-1082,1237
4171,-1782,3017,-1065,1528,10801,-11240,-1000,1294
4171,-3257,2847,-118,2469,10782,-13109,-1204,1412
4171,-2163,-1500,-2937,-2863,23314,10669,1120,-313
4171,-2061,-1096,-2515,-2448,21797,8913,1122,-300
4220,-2853,4590,539,4913,11022,-20184,-1683,1137
4220,-2311,3741,564,3573,12185,-16733,-1572,844
4220,-185,2673,335,2346,13611,-11883,-1241,662
4220,3752,-2150,-3287,-3383,24336,17936,3101,-3391
4220,4237,-1493,-2965,-3206,22405,15720,2787,-4266
4220,305,457,-2886,-2208,19899,8774,680,-2611
4220,2198,1112,-2882,-2133,18644,8474,583,-2294
4220,2328,1688,-2674,-1551,17187,6933,319,-1592
4220,-3827,979,827,2198,12511,-9954,-1197,1638
4220,-3227,1051,426,1868,12002,-8671,-1028,1469
4269,-1332,-742,-588,-843,20832,531,127,-492
4269,-307,-2141,-1826,-2377,22409,7443,364,-474
4269,-1343,843,180,1612,15929,-6446,-875,300
4269,-2811,-2107,-4256,-1877,16000,7100,725,303
4269,-1247,-962,-3257,-741,16022,2460,457,316
4269,-883,-3643,-3834,-2440,17585,12603,765,-220
4269,-2344,-2795,-2636,-1677,18206,10521,782,-322
4269,-2061,-1336,-759,-496,19900,6017,644,-435
4269,-49,-1885,-2125,-2520,19133,7215,877,-556
4269,-176,-1265,-1778,-1557,17804,5636,761,-468
4318,1107,1852,-613,1434,15814,-6560,-409,164
4318,-25,-870,-2774,-2212,19089,7604,757,-581
4318,144,-268,-2269,-894,16726,4423,364,-399
4318,2674,-670,-1868,-775,18043,5280,802,-1942
4318,2924,-365,-1854,-681,16592,4721,824,-1884
4318,1461,-61,-2144,-594,16169,3075,597,371
4318,-2422,1182,-620,1728,13130,-4454,-267,1822
4318,-4361,4186,2113,5667,7807,-20473,-1757,3010
4318,-868,-2675,-2240,-2193,16926,9680,1084,145
4318,-1793,-2114,-1637,-1421,15318,6886,798,297
4367,-10,3410,1404,4675,6798,-19088,-1004,762
4367,-1321,3215,1527,3825,7358,-17575,-1031,687
4367,-1352,2273,979,2327,9047,-11726,-598,495
4367,120,-258,-2265,-3440,14564,7903,604,192
4367,-1160,-2871,-4530,-5979,17649,21682,1867,-395
4367,-1248,-2087,-2546,-1367,13873,7405,974,21
4367,-167,-1951,-2309,-935,12921,6351,786,90
4367,-1325,-1542,-1551,103,11101,2569,408,322
4367,344,1072,-578,1822,3608,-7291,65,-75
4367,-1311,3470,1292,4741,1860,-19145,-1031,438
4416,1251,174,-1228,-422,10263,-2421,530,-2127
4416,-134,-1902,-2576,-2622,14360,8231,1290,-888
4416,-2248,50,-766,680,12023,-1765,273,1842
4416,-2675,-2020,-2972,-1836,12319,6892,1439,463
4416,-2641,-1428,-2380,-1439,11456,5115,1255,300
4416,-1355,-1447,-2947,-3989,11826,10620,193,897
4416,-799,-3181,-4195,-5227,13813,19090,910,9
4416,1086,-1930,-3070,-2940,11544,12129,486,-331
4416,-1342,-1394,-2627,-1342,9631,4971,639,988
4416,-951,-973,-2520,-936,8372,3324,637,337
4510,267,-218,-1008,422,8812,-813,416,-528
4510,-296,-1103,-1467,-704,9931,3890,836,-2108
4510,-1164,356,-1188,635,7340,-1093,348,-898
4510,-580,3380,1645,4927,3343,-17528,-949,-369
4510,-416,3564,1960,4555,3673,-18508,-1157,-372
4510,1317,-1806,-2740,-2217,7087,7295,867,-659
4510,1176,-1545,-1831,-1040,6732,3476,487,-443
4510,153,1595,-5062,-1912,3857,7002,1946,-2969
4510,1456,2031,-4186,-1593,4033,5781,1608,-2136
4510,3755,1400,467,2047,5784,-9433,-569,-2739
4559,-2979,-1189,-2258,-1701,8124,4979,1319,205
4559,-6792,-2625,-2510,-2222,9348,9029,1060,1930
4559,-2360,-1304,-1441,-711,10326,5170,724,971
4559,-1610,-1358,-1362,-407,9701,4479,446,1532
4559,-2687,-1106,-1096,-74,8641,2988,251,1398
4559,2506,3500,655,3329,6185,-16326,-589,-2131
4559,211,2846,885,3080,6015,-14563,-761,-1165
4559,-1116,-2585,-1127,-1496,10870,9417,1333,-1110
4559,-241,-2764,-912,-1087,10393,7620,1113,-931
4559,-462,-959,-3749,-1746,5394,6782,1251,-959
4608,-787,2376,1632,4076,7528,-13337,-497,-185
4608,-508,4372,2713,5276,4387,-20435,-1050,4
4608,1272,-2498,-4195,-4160,9117,16455,1727,-903
4608,-410,-2009,-4011,-3323,7978,13629,1533,-873
4608,-252,-1130,-3261,-1855,6339,8365,1054,-657
4608,-47,-1319,-2251,-1903,6836,5629,985,431
4608,-241,-702,-1968,-1367,6076,4026,739,-121
4608,1069,3231,5878,5508,4579,-20039,-990,1469
4608,603,2174,4927,3575,5368,-14010,-552,918
4608,-52,-1494,-3018,-2075,6392,7473,1463,-1518
4657,1154,2076,206,2522,2280,-12524,-142,-1720
4657,1289,-1145,-2216,-1995,6420,4066,1025,-1961
4657,13,-1188,-2424,-1313,6344,4885,997,-1872
4657,-1136,-936,-3210,-1746,4693,6047,1073,2115
4657,2398,-227,-2865,-1582,4652,5356,1575,-554
4657,-1613,-2854,-3585,-2535,8460,11185,1269,-362
4657,-1107,-2120,-3164,-1624,7245,8224,1109,-627
4657,-790,-1218,-2643,-1715,5610,5148,1097,-751
4657,-515,-861,-2485,-1422,5253,4063,981,-768
4657,1013,123,-1939,-274,4078,15,613,-628
4704,265,2683,1086,3511,-296,-16980,-1057,361
4704,-1042,1659,568,2583,796,-13068,-848,403
4704,-974,-2822,-1863,-1151,5957,5831,762,-607
4704,539,-2662,-1872,-1035,4966,5069,728,-611
4704,756,-1399,-1560,-201,3537,1580,432,-493
4704,578,-3015,-3128,-1864,3276,5728,857,-1636
4704,-858,-2209,-2530,-1351,3279,4967,780,-1531
4704,-7,4484,2858,5912,-4765,-26860,-2045,144
4704,-1101,1288,553,1269,104,-10334,-733,-415
4704,757,-1046,-3795,-2009,6713,7856,1355,-1449
4752,870,2293,-440,2459,3032,-8010,28,165
4752,883,2449,-248,2003,2416,-8929,-315,481
4752,-492,2695,-213,1609,2340,-8513,-121,-443
4752,-275,2381,189,1649,3205,-7794,-93,-425
4752,2807,-876,-3689,-2533,7380,9727,1265,-1178
4752,1333,-759,-3413,-2428,6890,8945,972,-915
4752,1949,-446,-2930,-1836,6059,6763,719,-518
4752,-1609,-1078,-2878,-2427,6304,8021,1502,-1338
4752,-575,-1055,-2674,-2117,5907,7286,1368,-640
4752,514,4233,1567,3204,-363,-18489,-1384,496
4801,-593,-3957,-3105,-3870,7679,13686,1378,-793
4801,-1928,-3583,-2905,-3063,7164,12895,1380,-783
4801,-44,400,-3535,-2040,5606,7028,1243,-1812
4801,1348,7,-3000,-1659,5234,5845,1030,-1659
4801,2,-491,-1812,-532,4296,1970,539,-1303
4801,798,2672,621,2140,1803,-10364,-580,-1435
4801,-887,2097,549,2037,1726,-9753,-504,-1292
4801,-1178,-2694,-1530,-1943,8422,10101,1216,-2010
4801,-1277,-2451,-1322,-1644,7727,8651,1060,-1931
4801,-825,-1766,-2566,-1701,5645,7288,1122,-2382
4850,-42,4085,850,4237,-303,-16851,-709,-1240
4850,357,4314,1641,4111,-82,-18845,-987,-832
4850,-435,-3769,-5414,-5143,5956,19964,2090,-2252
4850,1029,-2930,-4732,-4022,5041,16142,1734,-2034
4850,1482,-1596,-3591,-2505,4429,10500,1270,-1854
4850,-240,-439,-2487,-1295,4893,5129,886,-2230
4850,1201,-823,-1772,-665,4373,2807,589,-2045
4850,-1019,2191,268,2119,648,-11451,-817,-322
4850,-257,1941,-81,1806,789,-9693,-686,-573
4850,1258,-2637,-2364,-1699,4471,5443,1734,-4767
4899,-3281,1376,828,1840,1900,-9410,-638,52
4899,-2661,-1523,-1393,-2070,5476,5658,632,-896
4899,2503,-312,-3257,-1523,2528,4835,1186,-3124
4899,2252,-52,-2641,-869,2596,3068,884,-2766
4899,1893,2945,156,3298,-1141,-12443,-428,-2023
4899,395,-3252,-1914,-1763,5301,8610,1050,-1619
4899,-706,-2653,-1663,-1504,4391,7061,1080,-1679
4899,-566,-1047,-2159,-1051,5131,4462,900,-2204
4899,525,-482,-2511,-1116,2649,3780,825,-2109
4899,1446,2214,782,2083,623,-9990,-407,-1732
4947,-480,-248,-209,-1372,5143,445,446,-2148
4947,-901,-3223,-2386,-4225,7666,14664,1641,-2433
4947,297,1224,-2521,-1190,5755,3821,993,-2514
4947,2335,1297,-2047,-1048,5553,4083,1230,-2784
4947,2433,1599,-1540,-449,4250,2319,1105,-2724
4947,805,-109,-2296,-818,-1912,2322,634,-2680
4947,1787,496,-1749,-15,-3185,-1043,307,-2175
4947,-3907,-2368,-1835,-1590,6370,7724,733,628
4947,-3110,-1944,-1918,-1222,5272,6180,564,33
4947,-793,-1741,-557,-356,5273,2769,670,-1696
4996,-455,-356,-71,484,2614,-2928,-455,245
4996,-238,-1268,-958,-624,3470,1968,106,-109
4996,3245,4629,1940,4530,-2203,-19725,-479,-3424
4996,3820,5676,2884,5982,-3510,-26019,-1346,-2961
4996,1628,4898,2447,5236,-2456,-22874,-1563,-1636
4996,-2243,-3050,-2043,-1079,7060,9053,1028,-682
4996,-922,-2706,-1906,-799,6525,7984,1009,-539
4996,879,-828,-2371,-1460,5022,6538,1203,-2147
4996,-859,-481,-1964,-1107,4093,4358,1016,-1681
4996,1601,-330,-2099,-1548,10230,8896,1309,-1248
5045,350,1879,-1806,1133,525,-5049,8,-356
5045,-930,-2222,-2982,-2055,4242,8306,1074,-758
5045,76,-1067,-2537,-714,3452,3748,589,-240
5045,-1174,-974,-2284,-733,2726,3182,523,-306
5045,-868,-342,-1730,162,2770,820,366,-352
5045,1717,4457,4508,5332,4133,-19838,-1426,-1144
5045,1699,4909,4757,5086,3406,-20942,-1367,-1211
5045,-1973,-2426,-3501,-1704,6649,8446,1195,-1298
5045,-1198,-2073,-3253,-1273,5201,6982,1138,-1610
5045,561,-1365,-1773,-975,5908,6009,847,-384
5093,255,2857,1588,3716,1341,-14447,-1098,-521
5093,240,2438,1198,3106,1481,-12472,-950,-647
5093,1585,-2398,-3345,-2681,5885,12102,1186,554
5093,189,-2281,-2997,-2272,5465,10583,949,644
5093,-2159,-1573,-2253,-938,4433,6213,466,1049
5093,818,-639,-1970,-684,5374,4735,516,0
5093,598,-85,-1693,-77,4537,2853,354,-25
5093,343,-2113,-4399,-4411,5906,15554,1759,-535
5093,288,-2414,-3542,-3202,5795,13475,1655,-500
5093,-1318,-477,-1902,-581,4467,3012,959,-1117
5142,-1373,3017,365,3370,-87,-14410,-634,585
5142,-134,-360,-1958,-1060,3526,2019,619,-167
5142,662,3562,619,3174,1708,-12140,-520,126
5142,95,2949,1062,3141,1481,-12006,-559,208
5142,-1102,2676,1692,3546,772,-13513,-793,273
5142,-392,-1968,-2163,-1778,6102,9471,1571,-266
5142,-1719,-1386,-2205,-1420,4824,7570,1312,-283
5142,-566,-1621,-3899,-1213,1710,4234,666,747
5142,-2081,-1505,-3349,-918,2359,3878,651,576
5142,-690,-2684,-4367,-4646,6226,17401,2068,-865
5191,-560,1271,-1820,-462,3928,1505,819,-527
5191,871,-1501,-2610,-2192,5405,9190,1503,-899
5191,1289,-2370,-1148,-768,5293,4106,1091,-502
5191,-1211,-1882,-1239,-806,4986,4155,1174,-870
5191,-1841,-978,-1254,-384,4434,2977,1013,-747
5191,-449,2590,2354,3360,4042,-13243,-536,-260
5191,-313,2929,2803,3538,4381,-13000,-549,-304
5191,574,-1500,-2892,-1762,5611,8818,1600,-1294
5191,180,-1209,-2744,-1384,4896,7482,1341,-833
5191,644,-799,-2027,-527,3893,2663,704,-838
5240,-522,4992,1413,5440,-1927,-21775,-1155,7
5240,-349,4289,956,4109,-1294,-17827,-932,-115
5240,1137,-4531,-2961,-2950,5255,14084,1677,-2774
5240,482,-3594,-2771,-2481,4813,12087,1460,-3006
5240,1856,-2437,-2160,-1477,4954,7646,1077,-2882
5240,-366,-1244,-2633,-1684,3381,5620,981,-18
5240,-794,-930,-2248,-1678,3404,5169,1086,-280
5240,-1283,2049,2122,2881,5278,-12259,-982,415
5240,-1033,2330,1880,2773,3145,-12149,-787,137
5240,-1134,-2960,-1896,-1914,3847,7060,1318,-2002
5289,-203,532,-1578,-804,939,429,363,-692
5289,137,-224,-2827,-2026,-600,6021,922,-1108
5289,-569,3503,-523,2434,-4041,-9982,-236,-1038
5289,621,-870,-2112,-1106,4850,4197,1018,-1060
5289,933,340,-1138,496,3042,-1750,703,-1223
5289,-1754,-3277,-2353,-2603,5499,10312,1124,-554
5289,-1159,-2451,-1935,-1945,4797,7935,977,-424
5289,297,-965,-1605,-1517,4082,4694,809,-105
5289,-1025,-1149,-1530,-1412,3870,4330,705,-92
5289,-253,-576,-1082,-378,3041,1195,304,-12
5338,-2641,2724,-258,2019,292,-8898,-668,870
5338,-2779,2249,-525,611,677,-6460,-561,966
5338,890,1151,-1942,-491,2049,1891,178,379
5338,-1220,-1636,-1840,-1351,4138,5324,669,-585
5338,-1140,-1069,-1153,-707,4379,3241,538,-755
5338,398,-1019,-671,-488,4191,2184,392,60
5338,853,1145,683,2170,1629,-7420,-352,126
5338,-522,-2148,-1745,-2249,5925,10053,1270,-1454
5338,909,-1792,-1492,-1878,5500,8792,1109,-1492
5338,96,-1056,-1304,-1232,4662,6119,958,-1430
5387,3108,5506,2064,4649,-2910,-21053,-856,-2417
5387,2746,4661,1462,3380,-2377,-17092,-905,-1299
5387,307,3456,904,2694,-1121,-12682,-995,154
5387,2497,-3573,-4219,-5055,4886,18349,1403,-1441
5387,2597,-2851,-3511,-3800,4671,14781,1195,-1814
5387,-406,-350,-2327,-1167,4406,4980,487,-111
5387,1124,258,-1963,-684,3465,3265,539,-235
5387,-1542,-321,-1516,-251,3140,1319,194,182
5387,-949,2494,561,3428,-26,-12160,-819,508
5387,799,4868,2248,5584,-2900,-23086,-1738,867
5436,-1505,-2294,-374,-66,2869,-1560,-249,463
5436,175,-3606,-1603,-1818,4774,6707,339,118
5436,451,-454,238,1995,1831,-5895,-555,520
5436,433,-722,-2506,-1620,6940,6768,753,-202
5436,535,-749,-1981,-1344,6294,5298,491,-18
5436,2296,-1702,-3005,-4214,3561,11740,811,-1869
5436,2464,-2615,-3742,-4594,4583,16876,1484,-2052
5436,2687,-1261,-2755,-2479,3204,10138,1064,-1604
5436,-1266,194,-3141,-1002,816,3692,352,-211
5436,336,595,-2476,-430,707,1672,177,-257
5483,-802,4182,1867,4968,-4987,-20848,-1776,1297
5483,-976,3359,653,3337,-4447,-15586,-1347,1149
5483,-59,-2222,-477,-1375,6357,7436,558,-116
5483,-1115,-1886,-526,-1108,5449,6337,484,59
5483,-774,-801,-103,-133,4306,2527,229,492
5483,-2725,-727,-1997,-1673,2772,5505,959,-1857
5483,-1299,-506,-1732,-1337,2614,4755,691,-748
5483,740,-2652,-1802,-2271,5319,9506,688,33
5483,-972,-1942,-1236,-1058,4227,5789,348,107
5483,1570,-10,-1319,-1100,3276,3371,686,-1046
5532,-312,715,225,600,446,-7059,-403,210
5532,-366,-741,-1509,-1766,2414,3613,437,-250
5532,-1043,2728,1187,2327,-1053,-13891,-916,1208
5532,-639,1872,1271,2354,-418,-12995,-900,1635
5532,299,-1092,-2322,-1362,2407,5446,691,328
5532,243,-873,-2104,-1212,2037,4560,651,392
5532,123,-513,-1806,-719,1371,2593,405,451
5532,-772,63,-2786,-1472,-444,4005,1013,95
5532,402,242,-2474,-1258,191,3709,766,474
5532,-1281,-2722,-1663,-3196,3898,8732,593,620
5581,-241,614,1844,1799,2653,-8620,-435,740
5581,-1144,-1357,-80,-383,4181,3451,776,-120
5581,698,139,-2331,-592,2064,3088,846,418
5581,-1111,162,-1932,-362,2010,2221,728,273
5581,-463,2995,1622,3077,820,-13660,-687,1031
5581,176,2851,1275,2681,-720,-12551,-588,912
5581,1502,2914,985,2403,-2932,-12271,-613,865
5581,-851,-1559,-1635,-1180,4769,5535,1102,-277
5581,-1026,-1317,-1445,-967,4454,4643,956,-271
5581,-528,-1434,-1540,-830,4224,5239,864,1182
5630,564,3604,2116,5363,-1340,-19998,-925,553
5630,175,3897,1884,4465,-2019,-19599,-753,-709
5630,386,-3138,-3865,-4215,5872,18062,1792,1598
5630,-736,-2429,-3044,-3008,5088,13855,1467,1450
5630,373,-1272,-2134,-1713,3881,8616,1133,1315
5630,-213,-913,-2091,-1292,3125,4591,1191,-156
5630,467,-526,-1638,-650,2762,2355,1054,427
5630,1400,3610,204,2097,-113,-11817,-470,1985
5630,1629,3442,-9,1720,72,-9988,-494,1790
5630,-1228,-778,-1916,-1342,3795,4376,867,1397
5679,-67,2926,-302,669,1060,-7093,73,2012
5679,989,307,-2354,-2473,3417,6082,1102,1539
5679,-328,-926,-1358,-924,5350,3949,1054,1181
5679,1608,-127,-1048,-146,4841,1458,850,1065
5679,1594,3226,1430,4358,515,-15724,-565,1667
5679,-1289,-2344,-2168,-1970,3794,8393,946,1327
5679,-1382,-1760,-1725,-1216,3484,6202,826,1325
5679,12,-737,-1681,-1112,4302,4645,1000,647
5679,1279,-996,-1096,-905,4206,3669,840,665
5679,1579,2014,-81,1271,-402,-9079,-287,1292
5727,-1128,-516,-1838,-2145,2126,3695,337,1024
5727,-2115,-2611,-3390,-4061,4517,14563,1371,556
5727,-791,-619,-1415,-866,4432,3071,711,1471
5727,1142,-538,-1847,-909,1271,2833,577,631
5727,-870,-207,-1376,-467,4060,2650,879,373
5727,-1179,-292,-1297,-435,3470,2469,877,125
5727,-1076,-124,-1154,-172,2656,1309,778,-336
5727,-1202,-2371,-2450,-2457,4559,10082,1258,974
5727,-78,-2466,-1739,-1543,4135,6705,1030,1129
5727,336,-820,-1914,-678,1838,2480,844,920
5776,-1021,-498,53,-83,3960,-1428,128,693
5776,-730,-564,-286,-180,4131,716,494,551
5776,1073,2737,2934,2710,-989,-15476,-951,1611
5776,-781,3330,3314,4290,-1750,-19021,-1192,1858
5776,-1063,4246,3790,5092,-2685,-23889,-1670,1984
5776,-222,-555,-2185,-1300,7693,7020,1217,-624
5776,177,-697,-1618,-1232,7484,6475,1280,-965
5776,1986,-908,-2676,-1299,2240,4697,1165,-1358
5776,956,-589,-1833,-707,2378,2674,924,-1441
5776,-381,-1593,-2068,-1606,2913,6524,1783,-2438
5825,637,3478,1899,3654,543,-13308,-291,487
5825,-457,1510,760,389,4047,-3800,318,-52
5825,28,-1091,-1972,-1144,1798,3861,1140,-459
5825,-529,-924,-1868,-837,1259,2727,948,-334
5825,-1034,-75,-1285,111,399,-1019,555,-82
5825,-1104,5302,2427,5093,-2416,-22870,-1477,879
5825,-1323,3952,1871,3543,-1909,-18424,-1365,804
5825,-24,-1251,-3153,-2183,3347,7875,1261,-76
5825,-353,-536,-2693,-1468,2924,5517,995,504
5825,-345,-2386,-2827,-1274,2902,5438,921,-781
5873,646,2201,1421,2825,-793,-14206,-772,-100
5873,-701,1700,731,1990,-1952,-11065,-607,-125
5873,-413,-1516,-4034,-2587,4226,10677,1641,-907
5873,607,-1365,-3259,-1973,3817,8199,1382,-785
5873,-383,-1032,-2528,-1258,1618,4572,982,-613
5873,575,-1112,-2345,-1424,2433,4319,685,-185
5873,303,-835,-1823,-688,1773,1620,348,-75
5873,-181,1175,-904,-1236,2622,-510,279,9
5873,-58,-2004,-3692,-5059,4469,16963,1816,-675
5873,-750,-1516,-1247,-1327,4337,3706,773,-100
5922,-198,2663,967,2073,639,-12198,-427,208
5922,1299,-468,-1408,-2173,3195,3654,742,-239
5922,-141,1704,1588,2392,3076,-11691,-495,761
5922,1522,2026,2053,2534,4005,-12126,-528,443
5922,1699,2220,2272,2867,3071,-13136,-666,435
5922,-1174,-2455,-1957,-2733,5434,11852,1701,-752
5922,-824,-1331,-1536,-1925,4999,8789,1582,-1223
5922,-1688,-800,-1707,-1729,3696,5667,1013,1370
5922,-725,-484,-1549,-1471,3188,4566,901,1180
5922,-2799,-3606,-3174,-4766,3635,15456,1665,965
5971,1291,-882,-1623,-1234,1723,2121,590,860
5971,850,-1632,-2431,-2205,2177,7643,1186,531
5971,576,-1586,-359,-1292,4341,4788,1077,773
5971,469,-1745,-270,-1168,4049,4450,977,797
5971,364,-1590,-66,-650,3551,2743,748,685
5971,-945,2055,1529,2357,-580,-12671,-557,1298
5971,442,1854,1386,2150,-546,-11765,-502,1261
5971,730,-1515,-1279,-2077,4696,8897,1562,222
5971,357,-1452,-553,-1139,5022,6521,1274,281
5971,583,-1852,209,-1014,5258,3764,1019,760
6019,216,3419,1834,4641,-871,-17444,-742,1008
6019,1280,4219,1206,4939,-3504,-20908,-1057,887
6019,778,-3456,-3484,-4148,5251,17263,1793,-176
6019,1188,-2657,-2820,-3221,5490,14046,1524,-593
6019,-287,-1585,-1674,-1853,5661,9117,1352,-561
6019,-984,-24,-1670,-1481,2554,5418,997,1560
6019,-700,436,-1611,-1131,1828,4032,820,1346
6019,-756,2557,1501,2396,65,-12332,-725,948
6019,-213,2932,1681,3193,-797,-14211,-938,678
6019,-545,-1595,-1776,-2270,1685,7011,1166,482
6068,-1380,815,-224,2169,-2795,-8278,14,756
6068,-378,994,-586,1520,-2794,-8423,-307,969
6068,155,-2690,-708,-2081,4333,6177,1220,19
6068,-1620,-2613,-311,-1279,4270,4146,955,260
6068,-783,-2933,-3112,-3918,4664,16085,1777,-26
6068,-710,-2343,-2571,-3033,4126,12951,1561,69
6068,-1508,-1633,-581,-1071,4508,4725,1044,421
6068,-1131,-1280,-280,-886,4619,4280,982,161
6068,-560,-758,-10,-368,4064,2544,720,374
6068,-2216,2789,1809,3285,-1565,-13551,-1011,2627
6116,445,4685,3431,6237,-1933,-25301,-1647,1901
6116,-637,4878,4017,6455,-2938,-29007,-2081,2056
6116,1980,88,-2752,-2322,2922,10040,1625,-438
6116,1417,144,-2578,-1896,3226,9443,1494,-403
6116,640,-1131,-1268,-1077,2753,4628,1021,576
6116,976,-1004,-1336,-1060,2240,3971,1056,401
6116,905,-4650,-3175,-5971,5157,19858,2029,907
6116,745,-3518,-2829,-4059,4379,16005,1888,828
6116,502,-2014,-2145,-2380,3431,10867,1599,881
6116,208,-1301,-993,-1032,2617,4081,1173,1021
6164,973,2104,858,2575,-136,-8933,230,1393
6164,-789,1982,129,1391,-1568,-7503,-232,1746
6164,-327,2060,55,1269,-1207,-6975,-182,1650
6164,1310,2656,374,2066,-1438,-9036,-416,1841
6164,-617,-1850,-2100,-2500,1744,9577,1555,667
6164,-504,-1295,-1936,-1842,1354,7119,1395,728
6164,397,-817,-758,-868,3680,3728,949,259
6164,1425,-776,-602,-619,3532,3014,887,515
6164,-1174,-2908,-2134,-4211,4714,13703,1320,475
6164,-819,-2871,-2097,-3594,4965,14049,1527,235
6213,-16,302,-681,-1370,3352,4432,651,-168
6213,935,245,-847,-1347,2895,5536,801,-158
6213,829,-745,-1761,-1059,610,3564,754,-351
6213,1068,-118,-1655,-625,465,2306,560,-259
6213,3961,4880,1265,3301,-1581,-16093,-447,-2408
6213,2737,8301,3990,8082,-5138,-34605,-2268,-595
6213,-1823,-1118,-4993,-2693,-1359,7597,915,-488
6213,-445,-984,-3753,-2174,522,6568,789,-379
6213,-1410,-356,-2381,-933,1031,2723,550,-348
6213,-895,-1898,719,-717,5351,2458,448,-1570
6262,1719,4177,3133,5246,-1483,-21540,-951,-1278
6262,-1592,2761,2407,3460,-213,-15230,-1072,273
6262,-961,-2115,-2811,-3048,3581,12695,1162,-35
6262,437,-1600,-2177,-2108,3036,9264,851,-101
6262,-730,-1048,-1613,-1637,2972,6386,618,-1074
6262,743,-1045,-1383,-1334,2938,5562,571,-1037
6262,-650,4218,1059,2480,-752,-12835,-916,-226
6262,1109,3470,569,1395,-254,-9688,-695,-288
6262,1297,-16,-1742,-2449,2547,5993,501,-662
6262,551,-1429,-2197,-1873,2356,7223,890,-701
6311,386,1985,46,1789,-2149,-10536,-912,25
6311,326,-1021,-2204,-1457,-243,4247,398,-482
6311,-310,2148,1770,3135,-1227,-15152,-1502,1251
6311,-1000,1918,1373,2509,-852,-12646,-1111,895
6311,381,-1012,-3157,-3042,3627,11298,1197,-627
6311,790,-1011,-2865,-2418,3211,9539,980,-634
6311,405,-942,-814,-1836,6600,6849,909,-871
6311,-879,-1705,-332,-1589,6023,6362,884,-741
6311,529,-2410,500,-1102,5788,4961,826,-681
6311,-1244,1109,-206,-360,1230,-3480,-349,1122
6360,1037,3540,-915,2418,-2158,-11843,-688,471
6360,-1123,864,-2551,-1261,-234,439,-27,490
6360,-264,-2207,-1020,-972,3304,5407,493,-258
6360,-1269,-1926,-1018,-918,3271,5102,657,-1009
6360,930,1642,1655,2885,-763,-13958,-836,809
6360,-448,1337,1520,2524,-735,-12489,-778,786
6360,-31,2158,1548,2968,-1227,-14086,-970,884
6360,-1629,-2165,-2327,-2255,4490,10464,1140,189
6360,129,-1620,-1818,-1513,4109,7935,931,217
6360,40,-1343,-2713,-2078,3227,8053,887,589
6409,-1234,3571,1991,4915,-3004,-19756,-1508,1101
6409,534,2501,1031,3066,-2447,-14118,-1068,971
6409,-1134,-1186,-889,-2045,1815,3621,33,1509
6409,714,-4580,-3335,-6014,5043,20976,1532,457
6409,-83,-1151,-2254,-2015,3412,8439,1165,-496
6409,1237,-1069,-2151,-1913,2481,7918,1154,-575
6409,1064,-867,-1804,-1460,1293,6051,947,-341
6409,-755,536,3343,3161,9528,-11936,-1135,968
6409,-888,-148,2873,2990,4493,-12952,-1053,1003
6409,-1323,-2171,-2487,-2062,1281,7790,994,-120
6458,259,-171,-1630,-1353,1385,3564,527,566
6458,-1282,-622,-2095,-1835,1866,6552,886,801
6458,800,-973,-2114,-1284,2114,6260,736,409
6458,839,-1245,-1820,-1058,1943,5247,597,441
6458,815,-2547,-3798,-4139,3357,16650,1930,-203
6458,-1063,-2243,-3227,-3231,2900,13525,1506,401
6458,-56,-1573,-2413,-2063,2361,9186,1027,714
6458,43,-838,-938,-1087,4379,4837,985,-88
6458,-1257,-752,-975,-806,4761,4355,938,-135
6458,-1521,2137,1479,2745,-1320,-13788,-758,698
6505,-1597,2586,1758,3091,-2069,-15104,-1302,1479
6505,-812,2281,1308,2425,-1676,-12363,-1041,759
6505,31,-998,-1623,-1381,2424,4960,785,186
6505,750,-326,-1530,-985,1791,3372,789,355
6505,1028,584,-2331,-1393,2206,5576,940,-9
6505,838,1189,-1901,-773,1536,3353,570,773
6505,-1893,-3025,-1838,-3683,2624,13530,1326,1201
6505,-247,-2461,-3458,-2992,-631,11060,1106,948
6505,-1060,-1697,-3606,-1465,-1272,6071,763,949
6505,547,-898,-1660,-1084,1875,2845,437,616
6554,261,2958,1512,3589,-1939,-16277,-957,1028
6554,-999,-27,-886,-929,515,-573,111,399
6554,622,1949,-491,481,-1075,-4931,-163,805
6554,-511,4345,1570,4419,-3476,-17907,-1075,1206
6554,269,-3273,-772,-1207,6409,7925,658,226
6554,-1297,-2740,-577,-893,5729,6483,537,236
6554,-1095,-2030,-572,-1615,5147,7008,1090,-85
6554,589,-1534,-683,-1325,4553,6190,1102,-13
6554,329,-913,-245,-612,4653,3954,724,196
6554,497,-1843,-2514,-2412,2250,8968,740,1334
6603,693,982,-699,-218,-100,-3047,-100,-106
6603,-184,-1001,-2155,-2517,1549,7234,763,-425
6603,-1010,-564,-2180,-1199,644,2773,736,-1527
6603,469,-143,-1613,-454,338,180,317,-561
6603,540,904,774,1759,-836,-10252,-639,-838
6603,1054,4471,2870,5691,-4009,-25094,-1448,-326
6603,949,6533,4046,7326,-5811,-33193,-2200,414
6603,-1601,-2420,-1358,-1326,4788,6869,486,326
6603,-166,-1878,-955,-926,4729,5242,407,271
6603,649,-1433,-1159,-1948,4331,7760,1180,-720
6652,-1063,4685,1191,4939,-4504,-20612,-1265,695
6652,-136,3829,-169,3505,-5026,-16684,-1204,621
6652,213,-2409,-3899,-3879,3289,16266,1664,-831
6652,-891,-1873,-3594,-3276,3631,14020,1490,-832
6652,-1166,-1916,-887,-1741,4725,6607,958,-474
6652,339,-1725,-428,-1576,4680,5878,898,-362
6652,-926,-1210,-179,-926,3917,3615,781,-281
6652,375,3281,1159,2082,-1971,-12021,-356,678
6652,381,-77,-1150,-1456,3982,5036,829,54
6652,-791,230,-807,-1334,4584,4466,689,11
6701,768,-492,-576,-1011,1332,-262,434,-64
6701,788,2400,499,2869,-2609,-12384,-515,65
6701,1739,3220,1080,3121,-3170,-16003,-855,-44
6701,1159,2563,681,2190,-2649,-12373,-524,-10
6701,-2478,-2267,-2500,-2564,2900,9688,895,2269
6701,-1186,-2250,-2300,-2346,2684,8798,638,2277
6701,-1066,-1655,474,-1205,4953,5206,556,94
6701,140,-1286,740,-1004,4469,4102,508,123
6701,172,975,1309,2786,-1066,-12570,-887,1001
6701,-966,4735,3206,6104,-3837,-26356,-1926,1089
6749,907,1609,-90,1056,133,-4108,-161,1295
6749,-961,-1886,-2964,-2757,2170,9303,1012,600
6749,158,-1579,-2981,-2582,1600,8512,861,577
6749,-830,-688,-2603,-1500,700,4912,529,549
6749,28,-19,-772,-565,3893,2681,497,1042
6749,-1898,3514,1842,3953,939,-14345,-964,1628
6749,-816,-1124,-2745,-3331,1832,12968,1400,-241
6749,-629,-510,-2618,-2616,1825,10300,1113,-1
6749,-386,-1545,-1726,-1723,2603,6724,728,154
6749,1279,-1008,-1660,-1362,2431,5665,664,110
6797,589,755,-1398,-999,1953,3166,399,96
6797,1146,3808,1853,3868,-2607,-18075,-1479,666
6797,-444,3112,1578,2701,-1449,-15025,-1365,433
6797,-622,-185,-655,-1574,1632,1448,84,-680
6797,-1345,-2371,-1768,-2416,2874,9626,1308,-206
6797,-908,-1656,-1622,-1404,2455,7054,979,26
6797,983,-2861,-1260,-2072,2504,7477,1060,-347
6797,1306,-2343,-1209,-1617,1753,6161,962,-83
6797,-1309,-1484,-2151,-2225,1349,7933,1008,-30
6797,199,-1161,-1837,-1639,836,6415,957,-293
6846,-933,1376,717,536,1490,-5297,-286,490
6846,1415,-217,-2310,-2064,242,5039,669,6
6846,250,-136,-1983,-1970,418,4258,613,-39
6846,1459,523,-1391,-991,-128,313,266,-49
6846,-159,1799,1313,1891,-3430,-13501,-1233,1344
6846,-1459,-2092,-1735,-3031,785,6489,334,647
6846,-1742,-1666,-1097,-1896,2993,6441,800,598
6846,-1620,-1525,-1076,-1553,2812,5787,715,573
6846,-930,-896,-1094,-755,2538,3339,576,284
6846,-956,2034,704,2787,-413,-9460,-403,703
6904,345,2734,1357,2494,-1348,-12658,-961,1045
6904,-869,-1889,-1909,-2399,3362,9228,1466,-1322
6904,751,-1559,-1626,-2234,3052,8118,1274,-1047
6904,629,-2873,-104,-1189,2804,3729,329,120
6904,1099,-2753,-300,-1087,2659,3500,338,48
6904,681,-2108,-141,-590,2598,2066,219,85
6904,-1153,-2952,-4262,-4898,1889,16248,1135,123
6904,-1066,-2053,-3516,-3175,2860,12129,951,205
6904,-881,-130,-1589,-674,1966,1812,404,-380
6904,-715,84,-1151,-578,2155,1771,553,-660
6952,751,4004,3577,5888,-2181,-24085,-1576,1502
6952,997,3166,2632,3823,-1612,-18136,-1263,1326
6952,620,2875,2052,3017,-1263,-14864,-1127,1275
6952,-1363,-1781,-3410,-2993,2057,12303,1493,212
6952,-1544,-1919,-2927,-2628,1712,10536,1337,475
6952,-1390,-1214,-1597,-1042,2182,4439,656,70
6952,-1177,-1096,-2057,-1027,877,3869,586,199
6952,-679,-469,-2257,-654,-514,1630,312,222
6952,254,2397,4100,2341,3829,-10307,-284,625
6952,-1054,-1657,1518,-2525,8043,8809,1158,-143
7001,1120,-494,-447,-891,1198,1240,369,344
7001,1110,-1094,-967,-1204,1685,4723,841,-293
7001,-594,2466,1733,3861,-1196,-13253,-699,352
7001,573,2687,1711,2791,-424,-13010,-2727,4224
7001,750,2332,1511,2479,-513,-11663,-2724,3978
7001,-542,-1509,-2165,-2635,3918,11010,2961,5099
7001,716,-1204,-1837,-2353,3977,10235,2444,3713
7001,690,-937,-1321,-1598,3798,8188,2055,1705
7001,179,-1134,-2995,-1553,-53,4213,887,861
7001,-1102,-886,-3177,-1353,-414,3663,831,826
7050,-181,1350,1883,3076,589,-10972,-271,1486
7050,-451,425,649,405,1282,-4117,98,1237
7050,-1505,-1464,-1123,-2163,2694,7191,1008,821
7050,-784,-713,-594,-1168,4248,4635,741,1038
7050,362,-449,-1369,-1212,640,3469,709,1038
7050,-571,3141,2043,3075,2355,-13204,-912,2501
7050,-743,2886,1406,2545,2152,-11495,-857,2314
7050,-561,3297,1269,2895,782,-13045,-1015,2323
7050,786,-2540,-1003,-1656,10326,10621,1342,854
7050,828,-2001,-1240,-1256,7510,9270,1223,737
7099,514,4518,3052,5216,1448,-21088,-1315,1804
7099,-1063,3329,3067,3691,1976,-16059,-998,1718
7099,-924,2201,2150,2505,-279,-11162,-703,1576
7099,-163,-2751,-2035,-3378,5726,15656,1646,488
7099,-328,-2258,-3184,-2932,3459,13560,1537,466
7099,-2235,-2118,-261,-1443,5479,7520,1104,1803
7099,-2049,-2428,-124,-1014,4665,5893,852,1876
7099,-638,-2117,345,-245,3448,2258,418,1792
7099,773,1663,-53,1343,-4120,-10197,-554,1474
7099,830,1952,-143,1579,-4789,-11249,-685,1550
7148,-455,-1018,-1442,-1625,705,4616,1033,306
7148,476,-2075,-2676,-2475,1419,9486,1310,295
7148,-595,1123,-511,2145,-1388,-6673,-42,926
7148,415,-617,-334,-1684,2898,6051,951,728
7148,-812,-164,-426,-1643,2628,5380,868,621
7148,-1193,-3715,-2445,-3896,2102,14768,1194,1186
7148,-1140,-2999,-2323,-3345,2849,12543,1107,957
7148,-437,-2128,-2194,-2551,4488,10071,1178,549
7148,266,639,-1325,-1604,3175,4766,1052,325
7148,-208,214,-2457,-1702,-964,4178,967,350
7195,1731,3675,1239,3322,-1167,-17141,-954,851
7195,1492,2888,542,2247,-1886,-13035,-668,657
7195,55,3170,786,2628,-3813,-14762,-765,746
7195,-829,-1940,733,-2199,3370,8259,1544,-756
7195,-905,-1556,631,-1848,3533,6916,1367,-687
7195,1277,-432,-2254,-1263,1417,4328,1322,-514
7195,1275,-604,-2219,-1210,1261,3877,1128,-166
7195,2904,-2677,543,-4178,5968,15212,1464,68
7195,2869,-2687,-816,-4302,3597,17627,1906,-176
7195,1680,-1037,36,-2274,3635,10654,1617,-498
7244,415,-549,756,-3,-367,-2848,336,1112
7244,303,-1994,21,-1262,1923,5157,971,630
7244,481,1145,2284,3031,496,-9044,-49,974
7244,-770,3258,-551,5118,-3175,-19188,-1277,1525
7244,709,6165,2630,8237,-5819,-32720,-2438,1854
7244,-153,-1384,-3962,-2375,988,9221,1726,-571
7244,294,-121,-4972,-1598,-2529,7136,1505,-694
7244,302,-2453,-1222,-1202,-1037,3209,642,-188
7244,-1236,-1995,-1225,-998,-644,2627,548,1
7244,-1181,-1043,-919,8,-224,-314,284,290
7293,-638,1200,1537,1486,6960,-4664,-254,302
7293,-495,-1507,-1055,-1443,11333,8024,747,-158
7293,-168,-521,-504,1020,11244,1612,362,38
7293,709,-831,-343,-1758,-35,6113,876,-663
7293,-318,-1018,-20,-1285,-307,4507,817,-587
7293,142,4370,3168,5529,-4245,-23174,-1799,843
7293,1038,6106,4836,7153,-4731,-30979,-2567,1181
7293,-265,5385,4752,6098,-3509,-27705,-2397,1131
7293,-113,-2489,-683,-2617,7077,12577,1694,-1290
7293,658,-1662,-859,-2165,7637,11242,1586,-1289
7342,934,4081,-3163,3934,-5403,-17474,-1145,-117
7342,821,3701,-1454,3123,-4846,-15933,-1194,-304
7342,1939,2628,-1311,1842,-4025,-10720,-803,-470
7342,-293,-3810,-2003,-3176,60,14223,1356,-1403
7342,1072,-3595,-1743,-3158,-221,12549,1288,-1393
7342,1131,-2188,855,-2110,5788,9938,1271,-1228
7342,-392,-1755,522,-1680,4145,8420,1004,-1227
7342,-1465,2752,6252,6428,-3578,-24689,-2125,1223
7342,22,2249,4918,5001,-963,-21485,-1859,902
7342,2258,-1529,-2495,-3652,5651,13273,1866,-1913
7391,-863,1346,-4760,-2187,-10024,792,331,-233
7391,-559,-1093,-5451,-4672,-5719,11377,1095,-572
7391,812,516,-3211,-1167,-4962,341,285,-141
7391,274,2436,99,503,-5862,-9149,-428,114
7391,1697,2007,-292,75,-8074,-7793,-506,232
7391,-93,-2253,3982,-3243,6594,12998,1564,333
7391,-1097,-1416,1683,-2601,5107,10323,1246,273
7391,-663,-1893,-382,-3032,487,9963,1420,-458
7391,-351,-1892,776,-2369,5619,8962,1301,-457
7391,-302,-1646,1819,-955,9898,4859,821,-288
7440,1611,1442,529,1209,-5534,-9160,-611,541
7440,1620,-1423,-2497,-3384,-2757,6692,676,-11
7440,1093,-1448,-2726,-2764,-1481,6581,684,77
7440,1133,-949,-1787,-2510,4623,7103,842,-327
7440,-552,-844,-1371,-1794,4080,5252,639,-216
7440,-456,1685,1620,3310,4909,-12636,-1208,763
7440,-47,1278,180,2569,855,-10696,-902,491
7440,-694,-2854,-1469,-1993,601,8791,997,-828
7440,727,-2489,204,-1122,886,6138,658,-701
7440,-398,-1909,2236,-126,896,2294,294,-498
7489,1933,3625,2535,4391,-6006,-18629,-1371,328
7489,1464,2451,-1458,2610,-7414,-12690,-990,383
7489,310,2713,-4594,2264,-8706,-11667,-878,357
7489,-103,-5410,-4577,-6451,5820,24001,2082,-1903
7489,1197,-4153,-2292,-4933,4727,19503,1894,-1732
7489,175,-1310,-7049,-1831,3650,7902,1012,-1145
7489,1272,-1355,-3515,-1853,4010,7215,934,-976
7489,1216,2128,2452,1772,2215,-10649,-1072,342
7489,1373,2062,2125,1767,1048,-10024,-783,319
7489,911,2086,2336,2344,271,-11208,-774,309
7538,888,-463,2729,770,5088,-5881,-501,-751
7538,721,-3017,-305,-2436,9288,7109,555,-1052
7538,352,-1713,-988,-508,7367,1571,209,-717
7538,-165,-1449,-4098,-1219,3986,6817,923,-1448
7538,-587,-2037,-2897,-911,4150,4885,824,-1118
7538,536,-3703,-941,-2973,7581,14353,1429,-1580
7538,266,-3151,-843,-2666,5322,11755,1056,-1307
7538,-962,-3699,8936,-473,18257,5555,598,-944
7538,-404,-3140,9543,-94,19228,5301,622,-958
7538,1258,-1826,7102,206,14764,3414,554,-1029
7586,1716,4107,-889,2816,-1244,-13354,-1144,-10
7586,1751,1863,-910,375,590,-4416,-498,-307
7586,1483,-1224,-2028,-3135,1082,9425,650,-782
7586,-634,-124,5634,-686,5117,3563,-56,-201
7586,-396,316,6489,-350,4442,2155,-88,-127
7586,-490,-712,8924,-494,10721,3420,316,-1268
7586,-294,-564,9861,431,6495,1199,173,-1116
7586,1147,-2390,-7296,-2781,1207,14011,780,-187
7586,1146,-1837,-5066,-1868,4581,10761,657,-453
7586,970,-1025,-2463,-695,6402,5319,288,-392
7634,1554,2846,3816,2420,631,-10843,-854,-992
7634,1788,3665,5225,2808,742,-15716,-1139,-788
7634,53,82,12516,2481,7199,-7591,-1245,107
7634,-899,1135,4354,2571,-407,-8977,-1184,12
7634,-724,5488,-282,6586,-7005,-26862,-2306,498
7634,-278,-1378,1818,-2029,8106,8103,782,-1490
7634,-34,-1555,3710,-1290,5815,6442,636,-1288
7634,-389,-844,-3666,-1534,1904,6087,547,-1579
7634,221,246,-6700,-2191,-5352,4658,595,-1613
7634,2433,-1926,4884,-2197,2677,6305,309,-1660
7683,1611,-784,-628,-1486,3710,2312,29,-1000
7683,-352,-1478,-1959,-1537,4097,5393,135,-777
7683,-826,2259,1332,3646,2484,-12599,-1114,-647
7683,-958,-939,5730,0,7205,2234,135,-861
7683,-1286,-2072,3954,802,7159,582,-198,-560
7683,2074,7213,10027,7665,3184,-30889,-2250,138
7683,2000,7236,9333,6526,3676,-29841,-2101,85
7683,879,-2043,226,-2647,-4632,6370,196,-770
7683,637,-1715,-98,-2285,-7395,5345,152,-609
7683,-533,-465,-485,-1194,-3775,1688,-82,-512
7732,62,3445,3047,3276,-7015,-20660,-1622,-397
7732,453,2858,4565,1196,-2193,-14203,-965,-714
7732,493,2182,7169,1170,2782,-11834,-844,-591
7732,1618,-3374,-4251,-3798,1315,15476,1296,-1549
7732,1427,-2628,-1207,-3070,7815,12917,1252,-1398
7732,-593,-1765,-3231,-2114,2312,6202,237,-763
7732,173,-1696,2275,-937,4943,5026,162,-811
7732,750,4053,10084,5563,262,-27040,-2357,174
7732,-657,838,7573,1185,874,-10334,-1117,-409
7732,618,-2626,4281,-3330,3870,9302,471,-1265
7781,801,1921,4035,2576,-959,-9784,-880,-355
7781,1772,-1641,-1207,-1520,3947,6223,323,-849
7781,1456,-2379,696,-399,7950,5681,331,-704
7781,-515,990,20313,2117,11709,-11052,-1161,-4
7781,-224,1405,19323,1813,4916,-10531,-1022,-67
7781,1505,-3204,3590,-3370,9393,12123,1517,-1498
7781,-426,-3419,5814,-2404,10694,10728,1037,-1117
7781,1084,-2969,12205,-1552,-4488,4282,-477,-219
7781,-377,-3671,14370,-1693,-1453,4632,-147,-456
7781,542,-4025,14760,-929,3914,3908,333,-641
7830,-456,184,33150,3045,12867,-11495,-951,50
7830,1244,-1478,26478,-395,8440,-433,-267,-338
7830,1680,-2334,18677,-1783,3162,7307,467,-574
7830,517,-597,17368,-2511,6221,4633,39,208
7830,386,-1467,17268,-1102,11635,3562,-238,325
7830,262,1460,11526,3357,7787,-12742,-867,183
7830,330,1679,10408,2997,3908,-12159,-1024,455
7830,-957,-1376,8613,-1995,1308,8434,483,-822
7830,-848,-2154,5688,-1632,-1268,7594,257,-569
7830,-409,-3140,9516,-1618,-782,5181,31,2
7879,-1038,4030,31168,6234,11063,-22990,-1946,-165
7879,-239,2781,30862,4947,18898,-16856,-1525,-542
7879,712,2894,22068,2975,11949,-12441,-967,-864
7879,275,-6263,23588,-4201,13769,17227,1201,-1497
7879,432,-5690,29107,-3099,14151,14270,1261,-1651
7879,-1438,-1853,26527,-1963,8122,5627,-140,-733
7879,-1204,-2213,29203,-1734,10343,5295,-102,-767
7879,1094,-1067,29644,-2084,5309,4131,223,-1071
7879,-2003,-121,21567,5024,4833,-14565,-2395,762
7879,-2351,-48,16546,4166,-6055,-13163,-2338,814
7928,882,-2576,50813,-1449,10094,4717,559,-1753
7928,-537,-2170,44575,4,10113,7466,696,-1689
7928,807,2714,33890,5998,2605,-12334,-975,-684
7928,416,2433,24919,-727,3134,5850,1136,-2341
7928,360,2066,25305,170,2629,5097,1108,-2272
7928,2338,633,33714,-6478,-25938,15990,2553,-3385
7928,1948,-1572,34991,-3428,-17092,13573,2189,-3112
7928,1302,-1886,30873,-1188,-14402,9995,1620,-2640
7928,-2293,-2532,29965,-3701,-23235,2938,-43,-1337
7928,-696,-726,24050,-4384,-28563,1262,142,-1448
7976,902,-951,84512,6517,16092,-16241,-1845,-1033
7976,-521,338,79069,6679,22320,-14948,-1639,-1135
7976,81,1712,54342,1465,7887,5396,232,-1965
7976,-970,-3832,33843,-3339,4010,3952,-799,-1228
7976,-569,-3997,34315,-3184,6570,3350,-574,-1344
7976,-3131,-6320,71440,1640,13452,-2127,-1862,-951
7976,-1441,-5287,65175,2211,10692,-1952,-1504,-1072
7976,-256,-2050,53015,2788,7286,-3705,-1032,-1427
7976,-1791,-9641,70573,-9381,41495,11789,-122,-1702
7976,-2492,-7326,72355,-3745,20851,9255,93,-2017
8025,2831,8729,41077,3552,-2479,-13475,-133,-6091
8025,2865,7296,35479,1124,661,-7643,-18,-5909
8025,1660,4850,27877,-3645,-5909,5261,1058,-6315
8025,-1954,7105,48061,16246,-10266,-28429,-2537,-4401
8025,-740,5469,37447,9619,-23980,-13689,-794,-5144
8025,510,-1431,64011,2727,27139,6338,-118,-6143
8025,-997,-1930,70864,6375,42520,5200,-190,-5914
8025,-922,-1800,72761,6799,32186,2164,-332,-5454
8025,-642,-1283,53108,-8807,-7846,3214,489,-6633
8025,-604,-1207,49968,-8286,-7382,3024,460,-6241
8074,1638,9262,45575,13093,-32328,-11596,807,-7562
8074,427,6887,33918,11157,-28255,3894,1538,-7302
8074,-1871,4631,32117,6803,-29114,2587,842,-6318
8074,-1057,-1473,41829,-1304,-13458,4182,254,-5021
8074,326,2129,42171,-289,-11056,2588,747,-5342
8074,1241,7292,64411,814,-40183,-26656,-2246,-3676
8074,252,1507,57909,-3122,-22165,-7622,-1356,-3509
8074,-1732,-3611,54712,-5224,-6638,6250,-670,-3233
8074,3270,3709,54006,-10211,-33408,9576,2775,-6846
8074,516,1009,37122,-5837,-34625,5196,1901,-5904
8122,560,4777,55881,-443,-65625,-21699,-1195,-4551
8122,1062,4102,50177,1368,-51636,-20072,-1827,-3769
8122,923,4306,47731,1297,-34612,-15470,-1530,-3669
8122,2340,4569,35449,-4913,-46326,12824,2198,-5635
8122,1871,5382,18441,-2640,-43406,10233,1512,-4833
8122,2797,6267,41425,-4604,-35557,8210,1633,-5177
8122,1573,3709,47543,-3435,-34534,6557,954,-4514
8122,-198,1630,51407,-2141,-32338,4573,745,-4172
8122,2777,10269,58113,-1831,-102283,-17198,236,-4346
8122,-1652,1017,52797,1358,-20421,5889,340,-3133
8171,-287,125,74475,8768,-7278,-1600,-1,-2392
8171,1172,-3596,79143,8584,28656,5564,410,-2399
8171,-2944,-3739,77954,-5755,-71526,-18388,-2405,-279
8171,-2031,-5762,71529,-4221,-43678,-13693,-2437,-58
8171,-1034,-4391,58823,-1597,-51884,-12788,-1990,-270
8171,-569,1337,33177,-9087,4785,12982,1533,-2494
8171,327,722,31721,-12731,-342,11474,1200,-2025
8171,-670,-735,42871,-3212,81727,6694,551,-1881
8171,309,-3386,47010,-5954,83555,5006,417,-1625
8171,-1200,545,35870,4841,-17057,-13010,-1606,-161
8220,-2887,-6096,36945,1610,240632,6171,-1136,-13
8220,-2100,-4408,37463,3979,162716,2407,-810,97
8220,455,1356,42185,7087,-128786,-13237,-1076,148
8220,1463,-6269,68211,1202,607789,6453,2096,-1645
8220,2388,-2373,57200,-9419,520568,7014,2925,-2109
8220,-2140,203,43997,6978,-786001,-15764,-2590,861
8220,-2050,-1480,53808,9850,-774774,-14518,-2417,746
8220,1353,3587,13449,-5625,943201,9939,803,-1265
8220,206,2700,6382,-12520,804845,8442,797,-1165
8220,-2024,1837,3072,-11888,546146,4312,218,-728
8269,175,2967,25817,6325,-625236,-17260,-1619,42
8269,-752,2071,26187,8597,-893170,-16564,-1808,396
8269,-3053,-1241,25051,5443,-720116,-11625,-1868,888
8269,-1726,-4641,17000,-7263,1057805,14841,1185,-1148
8269,-1523,-3430,16924,-6845,987137,12220,1015,-1097
8269,-726,4386,18849,-11638,1139182,8385,261,-685
8269,803,4320,11845,-9052,1017975,5849,-88,-517
8269,-1854,-3725,27680,1026,-502299,-12070,-2185,1477
8269,-3799,-4911,34083,5411,-487505,-12040,-2742,2065
8269,-3787,-5929,47193,9615,-674953,-15130,-3162,2310
8318,-3550,-5921,18850,6206,255777,-5770,-2622,2587
8318,-5406,-9859,16000,1567,978438,5850,-1700,2383
8318,-4751,-8726,24062,-203,551316,-1985,-1790,2137
8318,1034,11370,-2490,-5712,1356475,10351,1407,-62
8318,2061,12926,-19665,-2589,1216247,9523,1875,-732
8318,944,-1615,6018,-6070,1123839,14045,1374,730
8318,2607,-361,5108,-4527,1020221,11717,1258,761
8318,1712,-1467,10412,-3920,1204528,7488,1227,714
8318,1634,-289,6861,-7899,1141964,7379,1120,580
8318,581,-1822,8017,-8180,952631,3754,392,885
8366,-133,4777,15971,-29,-937095,-11822,-130,782
8366,39,2294,10044,-2008,-296554,430,697,342
8366,2052,1705,-1750,-2606,559376,11403,1607,-320
8366,-1965,-6190,33585,-2104,1142477,4108,507,503
8366,-1176,-5486,38999,-3059,969305,3011,713,192
8366,-1304,-4934,2727,779,1362454,4722,-90,1054
8366,-1478,-5194,4064,-1484,1262517,3140,-589,1612
8366,2180,1987,-15957,-7142,955196,15251,2005,-439
8366,486,2019,-10655,-4676,909558,11686,1494,-20
8366,857,2749,-5053,-2894,673203,6237,873,295
8415,-1616,-3800,-33,-2873,708927,1053,-659,1491
8415,-1834,-4957,4198,-3205,828159,-102,-1000,1748
8415,-1358,-1632,12897,3497,-408506,-21682,-2922,2745
8415,-548,5327,348,9789,-2178967,-27838,-2960,2900
8415,-886,-44,4000,6956,-1545736,-15833,-2581,2914
8415,454,8769,-11908,-4854,1366157,7208,748,468
8415,1517,8601,-10316,-272,1206194,3465,-247,1082
8415,514,6447,-4344,-5679,1466094,7293,275,866
8415,163,4644,-11725,-2374,1339983,4886,-164,1011
8415,-1063,2592,-14195,771,1059523,539,-298,685
8464,1181,1533,2049,-1298,-105064,-12261,-503,296
8464,-982,-2533,-9852,-5834,974666,9398,1128,-646
8464,-928,-851,-5333,-1245,375295,-3470,44,70
8464,-1156,-2034,1017,-11176,1287075,4245,-221,439
8464,114,-2452,-1472,-9486,1160603,2816,-132,506
8464,-4,5469,-7765,5870,-2051674,-27181,-2353,754
8464,-228,1448,-8809,-6138,-1107654,-8361,-892,71
8464,-822,-3097,-15239,-2813,1384621,7152,242,-14
8464,-538,-2074,-13732,-3106,1286538,5362,-152,305
8464,401,-1391,-12359,-1694,1028285,1171,-661,763
8512,32,-1790,6452,7635,-73002,-16864,-1831,1095
8512,-1984,827,-11289,8514,-559962,-19806,-2814,1831
8512,-1307,435,-24221,4972,-457666,-14864,-2699,2012
8512,919,-729,-23637,-8315,1481969,16139,1175,-240
8512,-1263,-2104,-19829,-4024,1382874,12415,388,378
8512,430,-2603,-16268,1069,1481877,6621,303,194
8512,1474,-2345,-7428,5424,1295365,4556,320,-4
8512,864,3252,-26260,-722,-516582,-9146,-119,-256
8512,-94,2701,-27007,-4594,-222976,-1323,-106,304
8512,774,-1163,-22362,-6416,767476,12324,687,143
8561,-903,568,-6287,-4326,214161,-7365,-727,263
8561,-434,-2591,-4787,-7621,1035866,8017,646,-412
8561,8,-1263,-2772,-3158,929560,3661,359,-305
8561,2914,10432,-22614,862,-147611,-11275,-404,105
8561,912,10695,-18739,1516,-115616,-10674,-1235,775
8561,-91,-3729,-10038,-3178,1472126,11914,971,-229
8561,1764,-1725,-9272,519,1319755,11144,1655,-1121
8561,89,1443,-32471,-2991,1411445,6222,230,19
8561,918,1073,-26991,-1690,1313079,4766,-87,196
8561,-716,-896,-13809,485,1054890,719,-365,172
8610,1731,1577,-13014,-6317,714316,5650,425,-181
8610,917,-514,-9166,-5314,1065384,7444,-16,152
8610,684,2883,-3626,1117,50712,-10285,-1169,803
8610,573,-5757,-19116,-24,1271621,6368,750,-792
8610,653,-5322,-6879,2321,1157510,5054,472,-524
8610,-1555,3732,-28674,-3522,-309948,-13429,-2570,2113
8610,-1952,3810,-27454,-1846,-353635,-12306,-1885,1242
8610,-2002,-578,6435,-9316,1366030,7951,-439,1181
8610,-399,-1988,12760,223,1290974,6402,-255,534
8610,-1478,-4010,16185,6689,1056677,2110,-683,554
8659,-588,4833,-657,9979,-837725,-23252,-2038,1077
8659,-978,2385,2605,2780,-730055,-16321,-1835,1128
8659,-947,431,6719,-5049,-644741,-12925,-1791,1339
8659,-1157,-6615,5412,-3023,1328158,18708,1513,-159
8659,-857,-4001,-3253,-3107,1198577,15482,1540,-418
8659,-696,-4314,907,-5591,1310905,6718,-20,818
8659,1172,-1400,-1883,-6530,1224484,7110,440,329
8659,336,1449,-1601,1093,989724,2114,-43,216
8659,-3800,-9334,22562,11688,-234688,-16025,-3883,3176
8659,-2011,-11970,20564,12458,-304560,-14234,-3250,2753
8708,-1500,973,-7807,10214,172882,-9732,-2321,2365
8708,-832,722,-6910,4781,1173864,8413,-23,816
8708,1343,5889,-2090,8379,-19015,-11305,-1003,795
8708,545,-1500,-2552,-1155,1287688,8279,860,252
8708,-1404,-2839,60,-1020,1206099,7037,395,541
8708,656,-3263,-5957,-7527,1255692,15723,1485,275
8708,-528,-3057,-5869,-6752,1136009,11853,638,934
8708,-3505,-5096,-4196,5905,1301693,3072,-1589,1870
8708,-2564,-5109,1249,5079,1188877,1922,-1398,1301
8708,702,2860,14385,2573,-371726,-9432,-108,44
8756,245,9576,-29364,5357,-1388873,-23873,-2274,1388
8756,1017,6627,-22888,5706,-2008311,-29821,-3088,1932
8756,1700,3884,-16996,-7897,1573213,13508,2131,-972
8756,2636,5389,-30220,-12103,1472039,11913,1707,-604
8756,2464,6171,-31606,-13610,1211624,7804,1147,-143
8756,-2467,-4489,-2939,-2062,1348115,4902,-711,1196
8756,-2254,-3514,596,-1719,1224040,4058,-570,867
8756,-1113,2201,-18927,-1769,1248393,13265,434,56
8756,-599,4339,-12875,305,1180880,11655,408,137
8756,-1134,-5601,-1780,-86,1256081,4629,-408,-7
8805,-1441,-2230,-976,-203,472233,-564,-1325,359
8805,-1253,-1431,-3311,-2205,1018376,7020,-465,9
8805,-1833,543,20517,19545,-1683313,-24193,-3576,1439
8805,-2467,493,18036,18503,-1375971,-16989,-2599,1045
8805,-30,5545,15050,18928,-2217278,-30441,-3323,895
8805,931,655,-7465,-9008,1662341,14236,1208,-1662
8805,1207,853,-2503,-7833,1471521,11761,1484,-1918
8805,-941,-3628,6075,-8041,1443022,6954,-72,-553
8805,-1141,-3922,9808,-7709,1346906,6168,-37,-564
8805,581,-4599,2809,-3329,1440071,9522,-595,-171
8854,-5,-2971,6914,-8960,61956,-7308,-1265,-57
8854,29,-4691,-3163,-14384,844177,8276,80,-734
8854,1600,692,-15619,-1087,1401304,7584,473,-1610
8854,1412,1204,-6573,-2632,1335182,7813,511,-1715
8854,-196,448,-4018,-3540,1218733,6261,259,-1421
8854,1155,4562,13486,-281,-1629682,-22710,-2356,133
8854,1486,6756,14189,3177,-2209852,-28059,-2318,-67
8854,-1764,-5917,3872,-3810,1647260,11110,450,-1016
8854,-361,-5334,4144,-2386,1538175,9435,146,-652
8854,-470,-861,-3456,-3145,1411017,5837,267,-772
8949,1515,3019,7302,-5298,942495,3160,857,-1050
8949,1190,477,1991,369,1132007,5379,970,-1350
8949,348,3047,-5501,118,1141599,2668,-1036,784
8949,-1127,4201,-13773,1422,1041321,2060,-729,597
8949,-1083,-1260,1391,-29,1144227,4485,-114,41
8949,1226,323,-8300,343,1013991,3872,452,-558
8949,644,887,-10565,6461,727755,207,383,-617
8949,-1608,-3625,4682,543,1016961,4065,155,75
8949,73,-4119,4485,2112,879904,547,-189,-110
8949,-224,3710,-6950,-959,-554339,-13135,-2044,822
8997,-1142,-4069,8244,2261,-1408296,-13598,-2089,996
8997,1046,-3540,3860,-3687,-150888,5839,-210,-235
8997,596,1490,-4817,-5544,1317955,7092,453,-337
8997,-226,1731,-4581,-4591,1147934,4674,457,-659
8997,-2646,-2701,-12634,-5319,1132858,2263,-494,892
8997,-2821,-3227,-8607,-4589,1059314,1708,-817,1101
8997,-1010,-1969,2799,2304,1020315,10563,-159,257
8997,-139,-2475,3732,688,972129,8134,-339,403
8997,-1158,-2732,-980,-1656,853102,5872,-387,318
8997,-1125,489,-7259,8623,1037590,-741,-961,609
9046,-102,-228,26173,-10546,-218737,-11888,-1369,1010
9046,843,-3914,32827,-12609,578550,3713,-344,457
9046,-234,7831,-2505,-14057,-2142462,-21657,-1668,1276
9046,780,4998,-4748,-15257,-1122394,-3836,-73,-42
9046,1338,-569,-7286,-2734,1393241,6730,398,-957
9046,260,-1470,-8656,-3360,1272523,4243,-239,-349
9046,-1947,-1465,-8876,-1379,983621,-853,-1086,318
9046,2985,3315,-11095,-3029,1090048,3668,619,-1849
9046,1361,1559,-4254,-1414,984535,2033,625,-1882
9046,-1119,-2343,-7342,-609,1119418,5838,216,-1080
9095,1488,3396,-661,-5725,-201322,-15051,-1234,-297
9095,1095,385,-911,-7402,203259,-2351,-433,-707
9095,-1323,-3491,2136,4333,1206474,4243,30,-462
9095,-303,-610,-482,-1955,1130804,5021,667,-1016
9095,1285,4958,-3743,2270,-906138,-5009,-518,-249
9095,-103,1896,-11165,540,202864,9587,594,-749
9095,-149,2025,-13819,2169,509928,8397,700,-638
9095,264,-58,-15824,-1119,1230002,3467,235,-846
9095,2073,1986,-9699,-475,1015618,881,116,-866
9095,1755,4841,-7906,-10416,1045283,3798,1027,-1140
9143,264,-473,6977,2185,-815888,-18007,-1949,630
9143,326,-1120,10847,3033,-617437,-13716,-1596,419
9143,-276,-26,-7094,2936,1192044,7885,138,-12
9143,402,4855,-4326,3731,1062939,5610,143,-259
9143,-966,-1661,-3251,-2850,1171878,4631,485,-152
9143,775,-1151,2414,-1999,1047975,3098,377,-101
9143,89,-148,6186,-1634,796009,179,296,-124
9143,47,-2215,-881,-663,882039,7093,-301,474
9143,226,-2409,171,1418,768372,3020,-646,627
9143,1411,-1228,5930,49,1105561,3343,206,-523
9191,194,-1238,4220,825,690899,-3149,-855,470
9191,-301,-637,-4654,2373,-34161,-8995,-1332,727
9191,-942,2825,-5019,-2134,-638960,-18198,-1125,422
9191,-2017,4320,-6865,5632,-647547,-16317,-1520,736
9191,276,-4074,8822,-2270,1101377,9040,1231,-1376
9191,-741,-3195,4895,-181,1010646,6466,296,-403
9191,-1171,-185,-13130,-4148,1054801,4098,1060,-1205
9191,-13,7,-16032,-1011,988808,3009,416,-572
9191,-1034,561,-6600,1085,870792,1774,27,-277
9191,-820,3433,11845,5708,-1350675,-24681,-2237,886
9240,-1492,-2220,17470,-3193,-128630,-1775,-1044,1325
9240,-1797,-3234,12950,-10226,627502,12727,1085,-99
9240,-439,-1921,8285,-1394,945550,4559,298,183
9240,906,-699,6510,-1316,889651,2530,215,177
9240,914,2448,10321,4680,-541488,-17765,-1549,1083
9240,342,2589,362,2037,-466959,-13473,-1313,1294
9240,402,-3928,26699,2934,896674,6564,-350,1002
9240,961,197,18208,1805,843665,7409,292,492
9240,-357,5010,-8776,91,793790,6447,443,496
9240,-890,-3066,-12738,-4761,746863,4619,-46,1310
9289,-553,-1799,22400,2399,-404951,-21774,-2176,2041
9289,-1922,-560,16825,3372,-640882,-19925,-2263,2233
9289,-1601,-4806,-15098,-4444,764537,15992,582,1112
9289,-1261,-5378,-8156,-2805,719340,12664,215,1309
9289,-291,586,-9983,-4719,676814,7962,1091,-21
9289,1191,-7,-12925,-3834,636803,6517,959,-308
9289,-654,-2123,-6904,-3166,599157,3558,478,-176
9289,1844,2504,7706,6637,-382787,-17335,-1286,278
9289,-198,1739,6757,3777,-374424,-12693,-1054,732
9289,-1864,-1033,-20248,-6523,608500,6940,684,-401
9338,-155,1120,-2532,2217,296296,-4980,-1014,747
9338,-1790,-1120,-6137,1174,555011,4658,-412,707
9338,1134,-305,-10631,125,522200,6139,859,-457
9338,196,838,-15021,-6180,491329,6361,1282,-876
9338,-1247,-4829,8505,-6621,462283,11926,849,476
9338,-1262,-4629,8347,-4401,434954,8142,341,622
9338,-758,-2800,5006,-894,409241,2573,-231,721
9338,-101,1717,2034,-9118,385047,5631,1543,-752
9338,-121,720,-3938,-5395,362284,2539,400,313
9338,556,1561,12780,11009,-201301,-15757,-1661,1635
9386,-2206,-693,21498,-1361,-587864,-14707,-2350,2613
9386,-2056,-3480,14237,-4920,46677,-528,-954,1797
9386,984,-1538,-504,-4348,384761,4522,231,346
9386,386,-2217,-1535,-2316,362015,2980,-60,375
9386,1854,201,-1141,7857,340613,3950,95,170
9386,1592,1567,2414,3345,320477,2450,131,-7
9386,-1889,-2830,-5773,-2280,301531,13956,1093,223
9386,-1493,-1761,-6642,-1034,283706,9862,734,328
9386,-1663,-473,-13847,7491,266934,2461,204,391
9386,-481,622,-13576,9887,251153,1465,58,323
9435,-2820,-2781,11393,-1930,236306,722,-1077,1546
9435,-45,3814,-3313,-988,-499581,-15713,-927,650
9435,-496,4371,-332,3381,-1436373,-29156,-2542,1665
9435,852,3955,2242,3745,-1665252,-28312,-2686,1698
9435,1661,1663,1568,-15609,435230,9025,1030,-508
9435,1905,3598,-3238,-15599,409500,7386,913,-687
9435,345,47,2046,-1715,385292,9143,1532,-1207
9435,346,-438,8396,765,362514,6134,1174,-954
9435,-55,-2582,-1172,6162,341083,5290,-502,540
9435,-194,-2975,-716,7182,320919,4746,-458,424
9483,1136,3920,-11651,-2518,301947,-3944,-43,-45
9483,-736,-460,-1664,-10590,284097,6561,899,-210
9483,-721,1356,2078,-4390,267302,4726,821,0
9483,-164,2464,6423,883,251500,154,293,200
9483,-825,1330,-1312,-2325,236632,-9035,-1462,1514
9483,911,4534,2705,5489,-425684,-24077,-2439,1866
9483,-1109,-5175,-4947,-730,247808,4942,-141,309
9483,-1620,-3356,-1561,1078,233158,5183,267,-54
9483,-819,77,-2568,304,219374,5665,58,194
9483,-525,1788,-845,-1265,206405,3777,-191,411
9541,-930,-3684,-1673,3149,194203,-6374,-1394,1777
9541,536,-2419,-8798,-3843,182722,7674,410,300
9541,-853,-2222,-6611,-1562,171920,4648,-11,589
9541,-289,-2418,-8180,1960,161757,-917,-1792,895
9541,-974,-1241,-6457,-9970,152194,4053,-104,495
9541,-1556,-1217,-1744,-13446,143197,2388,82,1051
9541,1101,7851,1534,2114,134731,-10656,-600,137
9541,2514,9123,1086,2200,126766,-10945,-548,104
9541,1344,313,-8729,4280,119272,4839,305,-755
9541,1300,1055,-7816,4573,112221,4100,526,-1109
9590,-415,4803,-3016,5380,105587,-20496,-1686,423
9590,-885,2928,-5466,3686,99345,-13340,-1277,252
9590,-974,1752,-1833,4705,93472,-13975,-1868,666
9590,-632,-4421,-11604,-1527,87946,12094,-111,302
9590,-870,-5091,-5246,-22,82747,9874,-357,560
9590,-185,-1479,-12200,1216,77855,5000,235,-947
9590,841,-659,-14209,1548,73252,5014,412,-883
9590,-267,94,-15415,-1118,68922,4215,771,-960
9590,-2611,-2327,10174,-6372,64847,-13567,-2661,1596
9590,-1514,-1958,9223,-6515,61014,-11596,-2552,1541
9638,-834,2,-1203,4435,57407,-14936,-1789,485
9638,-1056,-2698,2425,1083,54013,-4671,-1313,516
9638,-1478,-4233,8451,78,50820,2072,-873,410
9638,-724,-1714,-20430,2710,47815,5104,36,-928
9638,-1211,-4389,-13773,527,44989,5452,776,-1684
9638,428,-2267,-8743,-3310,42329,13250,1303,-1658
9638,-682,-716,-4290,-1065,39827,11167,1256,-1697
9638,-405,228,4015,2223,37472,7072,672,-1361
9638,-261,-95,-11273,-365,35257,6327,1496,-2055
9638,378,624,-11719,-1085,33173,5488,1490,-2117
9686,859,4529,-7839,-835,31211,-16830,-558,-916
9686,-393,4022,-6817,7673,29366,-14993,-807,-964
9686,-504,328,-7253,5419,27630,1786,246,-1334
9686,2642,1874,-16260,-963,25997,6683,1812,-1932
9686,1040,1589,-18604,-4626,24460,5124,1299,-1421
9686,-995,-1670,-14614,2909,23014,4611,93,-552
9686,-863,-1755,-9425,2687,21653,3441,34,-593
9686,1329,-1352,-18298,-9678,20373,13479,1085,-710
9686,587,42,-17286,-9859,19169,11559,1427,-1203
9686,1435,1243,-13770,-7656,18035,6129,687,-763
9735,-1994,1038,-18335,5134,16969,-10696,-1566,266
9735,-1802,-1032,-14535,-3372,15966,4573,-106,266
9735,-362,340,-8981,-869,15022,-4079,-980,560
9735,505,6209,1315,10365,-63674,-22674,-1284,-109
9735,2197,4490,886,6395,17898,-9859,-159,-666
9735,79,-4888,6152,-1334,16840,5277,-252,-316
9735,135,-4885,11527,-865,15845,4798,-116,-225
9735,-465,-3796,13034,-275,14908,1291,-176,12
9735,1127,-251,-14960,-2673,14027,5385,260,-432
9735,1073,-455,-11183,-5949,13197,4204,225,-255
9784,-649,4564,1774,3406,12417,-13724,-1172,692
9784,605,1065,489,-1558,11683,1913,-94,244
9784,371,-750,316,-2122,10992,4831,-11,237
9784,-985,-2565,3298,3746,10342,3575,374,-433
9784,-1129,-2266,6308,2184,9731,3020,477,-481
9784,103,4006,-6199,9626,9156,-24333,-2536,1525
9784,459,2011,-4755,10555,8614,-15815,-1768,1169
9784,273,4564,-1077,16575,8105,-28468,-2555,1535
9784,-770,-463,-18594,-4848,7626,9080,1064,-880
9784,-1053,-1384,-12317,-3916,7175,6581,604,-535
9879,-66,-2216,-2334,5985,3670,1130,513,-603
9879,1154,-876,-9725,2322,3453,5696,1381,-1394
9879,543,1018,-17469,-1080,3249,4432,176,-740
9879,89,785,-20857,-266,3057,2990,-337,-389
9879,-1542,1419,-22848,585,2876,-444,-721,-20
9879,281,57,-8034,-1150,2706,7358,881,-1303
9879,-667,-2151,-5266,636,2546,5458,298,-905
9879,-1096,-399,-11200,-2487,2396,4184,534,-927
9879,-653,579,-17602,-1680,2254,2937,644,-1102
9879,1309,4865,-27839,5042,2121,-12209,-566,-481
9928,-119,-135,-3009,1065,1995,-8249,-879,52
9928,-2064,-3154,-15618,-1813,1877,9435,815,-479
9928,-1553,991,-9758,5648,1766,-10102,-652,82
9928,680,610,-19873,-4121,1662,3866,258,-584
9928,716,72,-18969,-3381,1564,2428,34,-374
9928,241,824,-16216,-884,1471,2662,67,-1213
9928,-794,569,-11958,-95,1384,209,-61,-895
9928,-1098,-2869,-11090,-5398,1302,9643,837,-472
9928,-1835,-4114,-9793,-3967,1225,6256,337,-140
9928,732,1657,-13753,-4886,1153,4362,-14,246
9976,516,1427,-11510,1426,1085,-2023,15,539
9976,-962,3541,-5038,4885,1020,-19203,-1397,1178
9976,943,3375,-7100,1909,960,-12087,-1520,1280
9976,484,4711,-2147,1187,903,-23521,-2298,1715
9976,-205,3434,-20989,-6087,850,8674,1133,-637
9976,-354,2583,-15895,-3255,800,7375,1027,-492
9976,-553,771,-9083,425,752,3098,523,-160
9976,702,-1634,-13089,-3857,708,6787,484,374
9976,404,-1656,-11273,-1133,666,5101,85,547
9976,-1084,-3019,-15660,3024,627,5249,-89,1065
10072,-913,3289,-13098,-1796,-3215776,-21794,-1800,1368
10072,40,4942,-19760,1016,-3240364,-20429,-1843,1144
10072,-1505,-4543,-20546,-3853,-1784668,11418,746,194
10072,-1809,-5386,-16836,-4561,-1770398,8448,457,344
10072,-1393,-3884,-9473,-2283,-2024290,4040,-372,379
10072,-1405,-3579,-5021,-1179,-1958897,3110,-295,342
10072,1915,4708,-18512,2602,-3720350,-12709,-674,417
10072,1867,8460,-9058,7246,-4480085,-29929,-2062,1152
10072,217,4557,-5537,2899,-3939193,-15752,-1461,908
10072,726,-2251,-10524,-47,-1963224,6155,348,249
10120,-355,-1788,-8535,4976,-3101892,-15248,-2131,1879
10120,1206,593,-31049,-1082,-2015297,6931,370,305
10120,700,185,-24789,1219,-1964978,4851,38,606
10120,-701,3104,-15608,5790,-2565697,-9967,-1031,1101
10120,-2277,-4012,-3893,1003,-1775847,10260,-225,907
10120,-1907,-3858,-2797,875,-1702869,8285,-360,907
10120,825,-4879,5049,6233,-1912022,6296,1017,-342
10120,1182,-3574,4821,8697,-1878329,4125,855,-332
10120,193,1492,-10498,4522,-3188025,-9154,-844,874
10120,-549,763,-10681,-504,-2956500,-6670,-514,642
10168,-1593,-2302,-14122,-584,-1831385,5292,14,564
10168,-26,-951,-9403,3128,-1737178,5985,1384,-428
10168,130,-537,-7460,-492,-1672464,4977,899,-181
10168,1308,-395,-5203,-2170,-1762252,610,104,263
10168,-3111,-5931,-7712,-2776,-1524558,2219,-972,1211
10168,-2134,-4546,-13083,-5745,-1543658,1835,-514,870
10168,1502,-771,-21616,2678,-1430070,9142,900,131
10168,1251,-461,-18348,2329,-1423682,6891,778,414
10168,1422,1618,-12710,18141,-1473158,-19,-287,-503
10168,1720,2702,-23195,16533,-1414926,621,86,-523
10216,1274,3193,-13602,-17835,-1651739,-255,178,-320
10216,466,4241,-9251,-5317,-3154224,-12581,-545,605
10216,1785,7095,-9290,-1735,-3562984,-23855,-1315,952
10216,1826,8160,-9970,-881,-3624014,-24879,-1614,1087
10216,-1607,-925,-15229,-8924,-853941,9688,974,27
10216,-1098,-544,-17214,-9147,-872266,7771,1585,42
10216,659,-307,-12742,-2368,-830703,9372,684,1417
10216,132,-143,-10188,-918,-828097,7449,624,1380
10216,-2264,-4832,1282,-2305,-932201,8335,125,1715
10216,-477,-4088,1015,-2020,-911681,7180,292,1570
10265,684,1417,-15351,-2299,-1629301,-1400,-73,1387
10265,-1776,-2926,-5463,-3518,-1007115,4099,-267,1783
10265,7,-4237,-626,219,-1015807,2944,-198,1537
10265,792,-2819,2243,2480,-1145857,446,192,834
10265,1882,3424,-5411,-2742,-2786344,-13927,-1588,1658
10265,870,5433,-2920,164,-3142250,-25394,-2433,1603
10265,806,-674,-12560,-2788,-1150720,7933,490,1577
10265,454,-1913,-11341,-3685,-1113617,6800,369,1682
10265,-483,-1060,-18782,-1975,-1113046,7197,512,1179
10265,-1978,-1084,-16568,-2069,-1074699,6096,477,1869
10323,-285,3002,-5769,2262,-2285290,-16821,-1990,3818
10323,-843,-3694,918,-358,-889044,8881,181,2693
10323,-238,-2155,-4667,-1693,-885038,8138,444,2521
10323,290,1079,-28032,3539,-996594,6416,372,3992
10323,995,2715,-31888,1664,-932155,6734,1148,3011
10323,1016,3027,-27382,-1866,-924079,5241,1113,2460
10323,-2260,-3360,-12078,-5221,-903196,12971,437,2278
10323,-1584,-2282,-12509,-3708,-863248,9405,388,2381
10323,1822,-314,-21110,7431,-1161895,3992,871,2433
10323,1727,-1018,-15239,9787,-1129457,2930,764,2871
10371,91,1264,-11197,2798,-1851621,-14703,-1395,4147
10371,-1098,3560,-6260,147,-2195944,-22651,-1990,4369
10371,-889,3569,-2701,-3145,-2112682,-19239,-1421,4185
10371,1806,-2194,-17484,-6709,-773934,13932,1483,1920
10371,1260,-938,-19888,-6244,-783591,12249,1430,1969
10371,-1914,-2892,-4510,3029,-989007,4873,-26,3292
10371,-1800,-1723,-8919,1759,-937278,5136,290,2964
10371,-1226,107,-14783,153,-940894,3048,71,2813
10371,693,2168,-14594,-2264,-1434777,-5925,-450,3603
10371,-1325,3534,-11414,2538,-1594254,-15291,-1315,4518
10420,566,515,-14472,3469,-1401946,-11522,-1643,929
10420,2613,-3371,-13732,-1777,-795822,4475,-451,526
10420,1192,-325,-7377,3620,-1301953,-14636,-2076,1790
10420,-1964,120,3040,2870,-1129135,-10230,-908,2014
10420,-1209,1598,1585,2494,-1311476,-15351,-1344,1556
10420,-82,-1235,-19801,-1096,-460468,12041,720,375
10420,385,-526,-18704,-1847,-457753,11376,1169,-533
10420,983,85,-17277,-5594,-487131,9408,1131,-664
10420,-1063,-1978,-19181,6181,-539876,6235,253,1308
10420,-1930,-1065,-18916,5821,-525784,4223,-51,865
10469,-398,1712,-13650,841,-924963,-9570,237,2257
10469,-190,-446,-15113,-2586,-637836,2371,1085,1621
10469,-236,-1756,-14987,-2594,-400508,8536,1236,1216
10469,-2900,-1799,-13987,-2790,-466966,6639,338,1825
10469,-2913,-1800,-10614,1126,-466245,4468,-34,1829
10469,1139,4765,-17075,1260,-923959,-14976,-867,40
10469,809,4364,-14384,1115,-931528,-15071,-1273,698
10469,388,3534,-12472,1498,-874731,-13803,-1548,1219
10469,1935,-1526,-14195,-3961,-191908,11314,683,-293
10469,2138,-1595,-12021,-2543,-216056,8675,373,-36
10518,1694,4617,-12449,2480,-613142,-20609,-3977,2135
10518,878,3029,-12006,1066,-496628,-15540,-4716,2520
10518,875,1958,-11184,756,-407550,-12396,-4598,2760
10518,2393,-5258,-18569,-6531,370852,25401,3465,-1028
10518,1087,-4832,-16441,-8533,286958,20445,2872,-601
10518,106,-1093,-15991,-10767,130704,12377,1791,536
10518,-1277,-1598,-13162,-5219,130835,10666,1215,40
10518,-899,-1171,-11079,-885,106674,6727,545,-798
10518,-2679,1705,-11854,5391,-183970,-17455,-1902,2970
10518,-2700,241,-8942,5271,-141431,-14633,-2069,2944
10567,-412,-1221,-16055,-3754,173400,6736,530,1534
10567,-330,-1573,-19947,-5902,211015,8656,773,861
10567,258,2445,-18465,-2189,-30356,-9945,-499,844
10567,-1077,358,-15774,-2267,180470,9116,979,2540
10567,-244,1014,-16826,-4655,164843,9353,1955,1166
10567,-1279,-3433,-13883,-4890,401241,19709,2045,1149
10567,-2979,-2511,-12334,-3018,342478,15752,2401,894
10567,-2581,-1582,-11178,-2642,280771,11834,2447,663
10567,3703,-1424,-10541,995,164449,3925,-476,952
10567,2661,-1858,-8037,1109,153999,2843,-790,1352
10614,1427,4163,-6932,5822,-40581,-20349,-2186,1753
10614,2666,2905,-8014,5054,8905,-14779,-1963,1650
10614,2739,2334,-8394,5484,19756,-13034,-1778,1174
10614,-1945,-3449,-1583,-1745,234804,9636,1478,906
10614,-1982,-2546,-1966,-1511,203159,8053,1353,912
10614,1095,-1442,-9209,-1776,191688,3451,-2203,-920
10614,598,-1298,-8375,-1749,176848,3148,-1646,-422
10614,-287,-5218,-6056,-2658,286196,14909,689,1493
10614,-1751,-4008,-7841,-1991,241397,11344,467,1391
10614,800,1094,-12312,3957,158150,425,-106,-1744
10663,-184,3381,-8734,4523,4700,-16464,-1096,3104
10663,-369,-1045,-11074,-798,158541,4186,-433,2552
10663,4433,2775,-8708,1656,43097,-13627,-4247,-651
10663,3748,2327,-8014,1172,46516,-10894,-2592,-291
10663,4313,2664,-5692,1533,28139,-11019,-1218,23
10663,-2097,-1232,-9324,-3721,166726,10122,2448,2397
10663,-1540,-890,-9292,-4448,149882,7635,2216,2506
10663,-1352,-368,-9072,-1406,126013,4621,-120,76
10663,-1605,246,-8281,-3802,100990,2280,560,-42
10663,404,-2499,-5871,-4664,171094,9825,272,4510
10712,-3490,1254,-6595,-448,66516,-2104,-391,2932
10712,-2925,-743,-7994,-2470,129252,7480,114,2413
10712,70,-1825,-4807,1437,108796,3000,-85,1806
10712,-826,-1137,-5335,3289,93217,43,-751,1928
10712,-759,-563,-4534,3663,62176,-2304,-968,2313
10712,804,3664,-5983,2396,1512,-11829,-268,470
10712,444,3934,-5944,3527,-818,-12438,-1184,1339
10712,673,-1675,-5044,-3012,107986,8757,1589,152
10712,-496,-1843,-6253,-2853,99189,8070,1404,955
10712,524,-1853,-6265,-4514,62462,3001,387,-595
10761,-1027,4346,-1693,7617,-95255,-23630,-1567,3688
10761,-1423,3426,-2253,6036,-73348,-19056,-1586,3569
10761,-251,-2240,-5606,-3631,86816,11550,1282,1165
10761,795,-2991,-2917,-3298,83689,10533,1062,1320
10761,-778,-2939,-959,-1885,72236,7367,349,1187
10761,-2471,-639,-6805,-1620,74486,5717,82,905
10761,-2073,-408,-6487,-1357,67696,4616,-139,1307
10761,3921,3576,-7482,2556,18411,-7535,741,-1431
10761,3757,4123,-6367,1820,1221,-10554,64,-1901
10761,-5914,-1621,-10443,-9938,97521,6758,-1001,269
10810,-1068,739,-2728,816,65233,-905,-10,3287
10810,-2973,-880,-4048,1340,100574,5523,331,2928
10810,-2082,1696,-1978,5062,25416,-7957,-1048,3250
10810,1957,222,-3851,1919,44400,-6050,-1492,991
10810,2462,3362,-3014,2756,-34839,-18926,-2088,3525
10810,666,-1821,-6157,-2146,117703,10694,1311,-3802
10810,1576,-2272,-5216,-179,101063,8432,1836,-3504
10810,-427,-2280,-4835,-1453,100572,4423,-2334,1471
10810,868,-2940,-3922,-911,93435,3607,-1576,1382
10810,-257,-2287,-2986,462,74824,150,-1374,1203
10859,-371,448,-1554,331,56263,-8781,-946,1258
10859,980,-2918,-3533,-2783,112949,5760,183,1209
10859,1088,-2096,-3147,-636,93914,2432,-165,1894
10859,3354,1312,-12047,-2266,104007,6378,917,-2859
10859,3787,1890,-12669,-2508,91215,5174,884,-3057
10859,-2609,1470,2642,2427,76496,-7555,1404,-1816
10859,719,3518,5724,4100,40072,-16650,881,-2094
10859,420,-1622,-8863,-1450,132291,9374,-679,2848
10859,-600,-1506,-7816,-2078,118944,7573,-394,2514
10859,899,-1103,-6414,-4637,98963,3605,-881,2321
10908,1539,3785,-413,3826,30134,-17487,-323,2112
10908,669,2912,3,4841,36107,-15501,-451,1892
10908,-598,1728,-833,4447,54688,-9120,29,1038
10908,2379,-3941,-6617,-4936,136740,16949,-755,1593
10908,3084,-2800,-5534,-3131,116620,11522,-1152,1820
10908,6091,994,-5354,2031,77535,8508,1136,-2259
10908,4181,313,-4881,1797,71310,7064,896,-343
10908,819,4748,-2597,1537,3928,-11254,1862,-1314
10908,599,5207,-1433,2351,-9670,-15827,166,61
10908,-33,4076,-1628,2097,-1223,-13275,-1014,809
10957,462,564,-6331,606,32498,-1260,-203,-2807
10957,-96,-1760,-6420,-1639,59497,8854,839,-2976
10957,874,-110,-2373,1292,31831,-1455,1063,-2216
10957,-2506,-1773,-4241,-1903,58596,7286,-1606,2353
10957,-1846,-1501,-2799,-485,55472,4197,-1983,2459
10957,1514,-3721,-3667,-1926,78260,16427,1979,1366
10957,-530,-3606,-2889,-1338,69469,12613,82,1869
10957,-3132,-2137,-4589,-1543,36895,8778,1608,4387
10957,-1404,-1533,-4740,-1350,37603,8661,1859,4155
10957,-1223,-680,-4189,-378,34233,5157,1333,3397
11004,-1456,3362,-2205,-2476,-17709,-18747,-2494,2932
11004,-1911,2529,-1350,-600,-8967,-14800,-1574,1874
11004,-445,-98,-4214,-883,36794,7548,873,795
11004,1313,436,-4038,-1415,33885,6714,763,821
11004,1351,968,-3582,-1030,29010,4617,450,1002
11004,-702,-3233,-767,348,33359,2987,-1621,2133
11004,-612,-2768,1630,-958,29937,-267,-1668,2406
11004,5950,-1832,-5202,-3981,62321,11846,1123,-3317
11004,3850,-1205,-4403,-2719,53869,7529,391,-3023
11004,-1057,-507,-2556,-2641,49960,5662,547,3354
11053,597,304,1338,69,30787,-8453,-711,1759
11053,-235,-2015,-1155,-3987,43586,4388,3244,-520
11053,-973,1664,1880,410,27615,-14326,327,1660
11053,-2415,1278,1772,78,31711,-11256,467,1760
11053,-981,1327,3261,2112,37817,-9248,603,1889
11053,550,-1285,-431,-185,58243,7908,743,593
11053,-166,-929,-1002,-388,57449,6685,791,687
11053,-2272,-1553,-4733,-967,59250,6636,368,1832
11053,-1270,-709,-4511,-825,53785,5110,210,1640
11053,-123,-1777,-5522,-1919,60490,7165,496,1312
11102,-192,-658,-3207,-1073,55681,4871,312,-1735
11102,1441,-272,-3477,-1041,52608,4961,566,-1988
11102,1097,4177,-199,3366,25984,-13978,-577,-1393
11102,1367,-1311,-3931,-318,54719,807,-2069,1174
11102,2030,-1005,-3494,-8,50039,-458,-1811,1140
11102,2231,3714,-1802,6365,30572,-12613,-2610,453
11102,2738,3359,-2079,-1771,30847,-8600,-2130,-115
11102,-3811,-3053,-3112,-411,50846,7281,1697,1767
11102,-3446,-2623,-2178,701,47437,5235,1382,1061
11102,-2341,-1574,-1325,2265,41121,1724,1880,337
11151,-540,1917,7237,9557,43005,-20234,-4598,1686
11151,-1975,1978,6924,10314,37923,-22993,-4143,1806
11151,-514,952,6006,9022,43374,-17902,-2395,1558
11151,-368,-828,-4309,-602,66366,12742,1998,47
11151,-1438,-790,-3941,-641,60238,9828,1464,332
11151,-1350,-2935,-5217,-1760,57143,6646,643,1760
11151,-2541,-3495,-4796,-2267,54252,6030,531,1530
11151,-645,2744,-2898,-1227,44830,-8095,158,1372
11151,-559,2162,-2877,-3514,44861,-5001,775,1140
11151,-827,2489,-2659,-3083,41814,-5998,694,542
11200,-5013,1535,-1527,1290,42735,-7655,813,3191
11200,-5052,-1377,-3810,-2162,55686,6148,1651,1433
11200,-4208,-676,-3234,-279,49360,1895,141,905
11200,885,3654,-1525,3543,38692,-10062,-1296,2772
11200,-618,4768,-560,3903,30743,-15971,-2274,2826
11200,-981,-1598,-5172,-2582,65781,12518,3220,3088
11200,957,-695,-5081,-2267,61209,10577,3590,1878
11200,1643,-2056,-3521,-433,60938,8053,623,-1841
11200,259,-1615,-3584,-683,57368,7946,1864,-3691
11200,851,-744,-3656,-761,52017,6468,2714,-5095
11249,797,2354,-2498,3358,40368,-10818,-1349,402
11249,448,23,-5393,-1365,47389,3390,-339,-162
11249,-583,-268,-7572,-3309,47518,8297,252,-448
11249,-815,-1161,-1534,639,57022,6897,1757,-451
11249,-599,-772,-1478,1826,56090,6127,1438,-278
11249,1048,5883,-12018,5167,13929,-15341,-547,1111
11249,1063,5420,-9179,1390,16658,-14406,-665,1261
11249,-4365,-2482,-3027,-3393,58641,12764,1235,577
11249,-3556,-2719,-2364,-2686,53634,10645,1123,250
11249,-1724,-2034,-1961,-1773,45684,6102,761,140
11298,1037,4941,1521,3950,24416,-21426,-2056,3227
11298,-916,3518,737,2757,27938,-15589,-2370,3228
11298,-635,2612,826,2062,28433,-12302,-2155,2289
11298,349,-4160,-5557,-6257,61855,24330,1288,1552
11298,-996,-3953,-4233,-4776,55082,19262,1200,1129
11298,744,478,-3482,-4127,42373,5326,-4951,-456
11298,-988,105,-3049,-3461,41137,4688,-5819,192
11298,-2790,-393,-2301,-2508,37976,1524,-5202,1578
11298,2536,2340,2458,5101,20451,-15376,-148,-33
11298,2183,1496,1954,4000,22149,-11543,-59,210
11347,1600,-1952,-1016,-2146,43594,7740,1713,-2605
11347,980,-2089,-1271,709,41441,6866,1481,-2283
11347,-982,1587,907,5659,21738,-10844,97,-620
11347,12,-861,-1594,1085,38401,4642,356,818
11347,-1086,-1457,671,-577,40585,4906,771,357
11347,-848,-3917,-3007,-5220,51121,20497,2314,-154
11347,-1030,-3662,-1670,-3446,47886,16249,1869,265
11347,650,-2772,-1514,-2270,41912,12031,1585,100
11347,2085,1153,-3825,-1869,32343,5938,2029,-2106
11347,941,1548,-3527,-1939,30101,5399,2402,-3766
11395,-513,3132,497,1402,22745,-10676,-981,2617
11395,66,3005,262,1890,21491,-9869,-786,3059
11395,-960,4284,1098,2044,12405,-16230,-1342,3379
11395,-1215,-502,-2897,-1941,34586,5633,-936,430
11395,-1470,-196,-2255,-1435,31495,4336,-592,-1017
11395,4280,-553,-2446,-1581,29943,5153,978,2611
11395,3696,-1128,-1954,-1064,27975,3718,1471,2327
11395,3021,-542,-1096,19,23684,-390,1771,2233
11395,2356,-1197,-3449,-5927,32904,9927,-1355,1089
11395,1101,-925,-2992,-6592,29491,8383,-162,1174
11443,-1072,1481,-662,1345,29422,-1806,1283,-1137
11443,-263,4181,31,2041,12625,-13382,617,-989
11443,1024,1879,-2952,-2959,13219,-942,1757,-1543
11443,-1931,1648,4957,2381,32532,-9304,-990,1664
11443,-1491,2438,330,1493,21196,-8188,-830,1464
11443,475,309,-3453,-1907,29687,10130,1223,74
11443,-651,893,-3112,2669,26563,6658,917,-19
11443,-1256,-89,-3142,-674,29876,5220,503,-10
11443,-1046,-58,-2902,-293,28773,4814,634,680
11443,270,565,-2398,174,23249,1184,223,1296
11492,1018,-1057,66,-2032,27048,4039,658,-984
11492,-103,-2378,-1871,-3396,30480,11645,1612,-1529
11492,574,407,-446,765,18509,-2089,642,-499
11492,-1904,-2023,-1717,-455,29111,5271,685,1433
11492,747,-2709,-1393,-852,26669,4422,530,-473
11492,-1920,4369,-888,418,15123,-5771,-2004,2559
11492,-2490,4389,-256,1320,13054,-8855,-4146,3979
11492,-795,-556,-2877,-2069,28971,4817,289,-1176
11492,-1641,-347,-2611,-2154,26981,4012,338,1807
11492,-1929,889,-2308,-1398,22573,1893,577,2865
11541,-310,5889,1973,4946,6789,-20886,-775,-73
11541,1234,5190,1088,3511,8703,-16384,-455,-773
11541,827,4134,455,2726,10171,-12528,-422,-321
11541,901,-1407,-1097,-3259,28348,13174,1912,-226
11541,948,-925,971,-2456,29474,11069,1624,-167
11541,-2083,-2300,-1817,-664,23900,6794,-233,1609
11541,-1761,-2131,-1659,-144,23208,5992,-254,1387
11541,128,-1224,-1644,1418,21403,2970,-516,1181
11541,-999,3195,104,-22,12934,-8039,-329,990
11541,-446,-538,-3563,-3380,23030,7899,2191,-551
11590,-1402,-1079,-2463,-1408,19387,2467,18,2499
11590,-1153,-1533,-3126,-2138,22207,6957,484,2379
11590,850,-129,-2200,-1109,23385,3726,416,2422
11590,-157,1913,-1052,1869,14620,-5735,-194,2780
11590,94,5016,884,7525,2135,-20771,-1837,3092
11590,-6573,-2521,-2735,-2385,26204,9388,-702,263
11590,-4647,-2546,-2300,-1993,24476,8145,-531,449
11590,-49,-701,-2264,-1507,21789,6438,1318,-499
11590,780,-337,-2031,-1238,19638,5086,1213,-548
11590,-900,2344,75,909,11888,-7571,65,-106
11638,-1248,-837,-2164,-1705,20408,5458,837,236
11638,-1422,2482,594,2434,8196,-10840,-491,1255
11638,-820,-1548,-2113,-1816,17176,7880,1359,793
11638,-983,-1206,-1800,-1301,15340,6470,1249,1459
11638,-786,-362,-1178,-68,11607,2201,776,1954
11638,565,-1506,129,-588,1209,3163,734,-957
11638,-666,-868,-244,-431,-420,1313,616,-931
11638,1124,-2507,-3268,-3307,12068,11879,1629,-2110
11638,1231,-2873,-2574,-2577,10653,9841,1438,-1670
11638,599,234,-5337,-1530,-3028,3915,647,-2525
11687,3008,6595,831,2927,-7468,-19321,-425,-420
11687,1610,5089,192,1334,-3519,-12973,-143,-72
11687,1593,1570,1387,1269,3007,-12142,-1157,1024
11687,1115,-743,-313,-936,8475,-1508,-314,220
11687,-12,-3117,-2353,-3123,14369,9804,546,-957
11687,-2230,-1106,-2655,-952,14825,8226,621,3876
11687,465,-647,-2318,-746,12874,6195,588,3287
11687,-1244,-484,-2195,-1286,13475,3740,1071,-1561
11687,-211,-128,-1663,-855,11656,1620,899,-1250
11687,-1826,-684,-2347,-2144,18328,7567,1956,-980
11736,3649,1926,1922,2968,8662,-13609,-1666,-28
11736,1311,-1372,-777,-1678,15657,2243,-180,206
11736,-172,-1567,-1866,-1200,19892,6108,885,-545
11736,-1517,-1334,-1917,-1487,18339,5954,955,-330
11736,-1245,-756,-2016,-1794,15962,4934,950,-17
11736,-1792,-3072,-3464,-4706,26214,15845,1340,-398
11736,-2112,-2663,-2907,-3300,22800,12087,1227,-232
11736,-1515,77,-1967,-1052,18298,4967,1235,-11
11736,-474,-93,-1391,-895,16919,3424,1007,-35
11736,-400,-623,-272,170,19075,755,597,569
11783,-1554,4402,1675,5279,3972,-20959,-1491,1456
11783,-46,3384,1600,4600,6490,-17279,-1212,1261
11783,-1647,-1462,-2945,-1672,20882,8369,1736,278
11783,-364,-1220,-2228,-1460,20785,7146,1848,250
11783,-1059,-286,-1210,-1597,19094,3807,684,-2906
11783,-728,-281,-1146,-1791,17519,3739,594,-1580
11783,-327,-346,-243,-1216,17228,2595,549,-524
11783,-2674,-2088,-2798,-2649,23353,9055,1149,740
11783,-4474,-2109,-1343,-1011,21381,5105,399,2547
11783,851,-228,-3236,-1398,20238,3486,475,-433
11832,-6560,492,-2104,-1162,19019,351,427,2235
11832,-4616,45,-2354,-1259,19047,2424,551,1454
11832,-2349,2343,1802,2499,13252,-14538,-841,-446
11832,215,2238,1450,2176,12834,-13137,-488,-662
11832,1335,2628,1718,2828,10952,-15112,-757,-578
11832,-1796,-2028,-2748,-2364,20612,8006,2416,509
11832,-959,-1821,-2291,-2216,19383,7037,2527,-22
11832,542,-1002,-1820,-757,20366,4853,563,-304
11832,473,-936,-1421,-43,18871,2993,269,-146
11832,-1798,-2325,-2132,-1368,23256,7865,225,489
11881,-397,3329,648,3228,10642,-14927,-1677,2228
11881,1333,1167,-688,228,13853,-5038,-945,1860
11881,1573,271,-2395,-1467,18637,4886,883,-1518
11881,167,406,-2031,-1223,17425,4193,884,-1385
11881,-334,1154,-1468,-267,15051,534,509,-1043
11881,1432,1896,647,2109,10205,-12883,-1273,-2081
11881,1069,1777,1023,2680,10242,-13346,-1795,-750
11881,-1444,-2760,-914,-1258,22393,7532,323,-647
11881,-713,-1490,-565,-785,23132,4924,324,-457
11881,-206,189,-3230,-1883,17269,5954,704,-848
11930,-424,4642,1542,4477,5792,-19406,-1520,487
11930,664,2737,1342,3007,7288,-14989,-1206,381
11930,-368,-2696,-4268,-3064,16859,12196,1475,-2811
11930,385,-2273,-4165,-2653,13467,10219,1411,-1987
11930,862,-1446,-3233,-1532,11593,6055,1244,-618
11930,-3529,-1934,-737,-1689,18372,5915,294,1284
11930,-1808,-2050,745,-1009,17842,4314,257,1364
11930,2203,4465,-638,2410,8635,-11265,-344,-3310
11930,69,3190,-565,1972,8227,-10181,-833,-471
11930,-1854,-1667,-2786,-1912,16195,7353,233,1336
11979,-1553,-350,-1926,-878,13124,924,-471,887
11979,-71,-1432,-2544,-1638,14681,5664,-7,434
11979,296,-1216,-2598,-2600,14349,6326,684,-1045
11979,1399,-1025,-2156,-1549,13300,4177,323,233
11979,213,39,-824,578,10588,-2306,-11,787
11979,-1236,-4621,-3338,-2897,17252,12979,988,-739
11979,780,-3532,-3063,-2764,15265,10416,932,-661
11979,1185,-209,-3006,-1800,14568,4518,516,-411
11979,585,-982,-2058,-1476,13438,3999,399,-296
11979,-1200,-903,-1176,-411,11584,1450,154,-154
12028,-388,1570,-164,492,11834,-4169,-319,-637
12028,1185,-547,-2113,-3218,18294,8207,710,-1054
12028,1172,575,-1486,-1609,15627,2603,419,-838
12028,-1922,-1779,257,256,15052,1720,187,-851
12028,-1557,-1808,-567,-402,10254,812,92,-700
12028,-427,-156,-2125,-1091,10310,1647,734,-1972
12028,128,1288,-539,1259,6818,-6351,52,-2145
12028,-4245,-2301,-4969,-1312,10410,7080,163,804
12028,-1323,-1780,-4369,-1134,10487,6176,821,-1219
12028,1369,-776,-2536,-203,10254,2402,1113,-2477
12077,3,4488,1970,4317,2030,-20942,-1753,-176
12077,668,3287,888,2412,4411,-13968,-937,-654
12077,1631,3555,1018,2744,3800,-14566,-840,-1119
12077,174,-1665,-1398,-2556,15847,8477,561,-375
12077,-585,-4143,-3352,-4863,18459,20187,1878,-439
12077,1114,-255,-2177,-548,12096,2839,215,-666
12077,-650,-433,-1830,-446,11518,2726,290,-603
12077,1322,-393,-1621,93,11795,2286,565,-1223
12077,827,1829,313,3023,6984,-8514,-261,-879
12077,-458,4647,2825,6028,598,-22844,-1422,-335
12126,-1270,210,1922,3161,7503,-12303,-492,-405
12126,-64,-595,-343,139,9106,-3748,57,-632
12126,-1077,347,-2921,274,4807,-830,326,-746
12126,-1085,-990,-883,-1161,13214,4982,956,-1097
12126,-700,-685,-715,-898,12358,3643,789,-909
12126,-593,-3220,-2979,-4387,16247,13161,1339,-961
12126,-285,-4095,-4044,-4618,17965,19088,2015,-1248
12126,4786,299,-2253,-541,11537,3301,1416,-3161
12126,2936,126,-1971,-532,10217,2535,1067,-672
12126,609,-1537,-964,-545,10617,1593,489,553
12174,364,1942,1546,3189,4990,-13936,-698,-1758
12174,-351,1957,1323,3039,5117,-12544,-749,-1234
