timestamp,ch1,ch2,ch3,ch4,ch5,ch6,ch7,ch8
66,0,0,0,0,0,0,0,0
66,-1272227,-890786,-617784,-942475,458970,462159,-615983,-4155089
66,-1194614,-835474,-581932,-888112,430798,436021,-572010,-4187762
66,-1121343,-786400,-546825,-835188,406891,409876,-539392,-3947930
66,-1054602,-727359,-526134,-788575,372220,395976,-469809,-4016030
66,-996851,-691700,-488966,-743766,351891,368723,-455320,-3756418
66,-940898,-666398,-448299,-694957,340284,334460,-464883,-3361588
66,-882417,-611130,-435378,-656004,315710,325190,-406164,-3712768
66,-830383,-581844,-404749,-614300,300576,300632,-397291,-3439508
66,-781681,-566545,-367841,-568615,292409,264197,-421395,-3274025
114,-737676,-571094,-326281,-525093,283755,220695,-459532,-1862564
114,-691480,-528436,-311076,-497515,263300,214750,-411092,-1816542
114,-652770,-436892,-327067,-490033,223254,252099,-261580,-3511101
114,-614391,-413353,-306137,-460053,211362,235292,-251176,-3301268
114,-577335,-391198,-285907,-431490,200725,218682,-242780,-3379210
114,-541648,-376348,-263430,-402370,194072,199024,-247315,-3105547
114,-510149,-305520,-290306,-404467,135428,227946,-88893,-2704760
114,-479764,-284304,-271367,-377145,135242,213354,-87495,-2966983
114,-451171,-293599,-235057,-342850,147593,179460,-151305,-2686937
114,-422209,-292820,-207090,-317981,149717,161137,-181339,-3062213
163,-401811,-301851,-181398,-290485,145292,129482,-234415,-2218268
163,-377462,-242098,-198635,-288034,113591,152733,-122988,-2675307
163,-357068,-297108,-141948,-244206,145636,88858,-261087,-1615910
163,-333980,-276249,-135143,-232571,135168,86245,-236748,-1531797
163,-311616,-198238,-164842,-239784,103261,130758,-100165,-3063537
163,-293262,-192105,-150178,-222633,101460,117294,-110112,-2827966
163,-275835,-191091,-133373,-205022,101339,101053,-130374,-2509901
163,-263065,-173758,-130641,-196962,91730,103582,-98984,-2842872
163,-246910,-171716,-118114,-181337,91728,90125,-113161,-2595538
163,-232269,-135258,-129586,-181391,66689,104868,-42247,-2787295
211,-219489,-197786,-74240,-139308,104810,40009,-202631,-1925651
211,-206913,-185765,-72774,-137177,91305,42196,-185973,-1518767
211,-194099,-118989,-101904,-148825,57718,84101,-50131,-2550784
211,-182246,-115625,-92993,-138025,56902,75381,-56745,-2399988
211,-167779,-167309,-50049,-110049,75755,24382,-170698,-1457647
211,-157209,-153242,-51439,-104036,68841,25071,-151487,-1361988
211,-151325,-77840,-91373,-122356,39312,78336,-2886,-2091417
211,-142219,-76950,-83481,-113442,39008,70631,-10508,-1967778
211,-134231,-86809,-68792,-100783,44854,54701,-42467,-1851448
211,-128805,-72411,-70686,-98417,36938,58318,-21415,-1741995
260,-118867,-146555,-18531,-64096,69680,-6423,-182652,-1247654
260,-109532,-114196,-34383,-70018,49231,12144,-114374,-1368692
260,-108651,-28568,-81913,-95886,10294,74968,63077,-1484342
260,-102293,-36034,-70652,-85572,16104,62466,36322,-1396591
260,-91777,-41039,-60490,-78036,19027,53217,9301,-1314028
260,-86958,-40637,-58175,-73460,17589,49031,5816,-1236346
260,-82313,-46858,-49711,-65186,22047,39190,-12713,-1163257
260,-77961,-90658,-17469,-43795,38296,-1777,-100420,-1094488
260,-72929,-92789,-10602,-36899,42394,-8594,-110989,-1029785
260,-69927,-26205,-46863,-58838,10548,43083,17412,-968906
309,-66165,-103622,9144,-22289,57203,-24260,-157444,-911627
309,-62402,-53427,-25354,-44441,18124,17088,-41682,-857734
309,-57154,-17633,-43772,-50891,5205,40031,27927,-807027
309,-52813,-22487,-36804,-45105,8013,32467,11931,-759318
309,-51903,1597,-48969,-51064,-3240,46152,59035,-714429
309,-48782,-1461,-45346,-45815,-1517,40316,46617,-672194
309,-45471,-8297,-37963,-39268,2529,31643,27602,-632455
309,-42385,-11761,-29505,-36855,3972,28571,17946,-595066
309,-39307,-19697,-22365,-31821,8093,20170,-2169,-559887
309,-38145,-62784,4235,-14376,23145,-15773,-79888,-526788
357,-36599,-56391,-5855,-19793,3934,-10049,-50362,-495646
357,-33829,8522,-45774,-42096,-28354,38528,84847,-466345
357,-31778,-2839,-26830,-29275,285,27296,26499,-438775
357,-29282,-13036,-17292,-22895,7364,16867,1484,-412836
357,-26203,-2455,-22372,-28765,-1966,23450,19597,-388430
357,-25073,-4498,-19272,-24779,1155,19590,12621,-365467
357,-24180,25876,-40655,-35300,-16596,43760,93914,-343862
357,-23078,17602,-33260,-29915,-10365,36173,71908,-323534
357,-22277,7045,-24659,-24012,-4410,26222,45665,-304407
357,-19402,-2323,-16320,-20614,-1235,19444,21169,-286411
406,-19364,-65667,27478,7488,37300,-36566,-126140,-269479
406,-18055,2916,-19840,-20674,-9382,17978,27661,-253548
406,-17054,-88686,34962,13607,32448,-54364,-142516,-238559
406,-16048,-51956,12192,3196,13139,-28614,-62482,-224456
406,-15641,13340,-20880,-19087,-6133,25381,42480,-211187
406,-14230,7202,-15694,-14929,-1627,18694,27125,-198702
406,-12969,-5545,-6688,-8632,6329,7164,-1932,-186955
406,-11062,10607,-17868,-13285,-2741,18619,29811,-175903
406,-11499,1691,-9984,-12448,-106,11959,12739,-165504
406,-12115,10367,-15341,-13826,-6276,19192,35275,-155720
502,-7015,-78146,47833,27577,48923,-58204,-148550,-79659
502,-6381,-62280,34220,18240,31455,-43875,-104241,-74949
502,-5453,30591,-24377,-15596,-10509,28971,91334,-70518
502,-5200,20356,-17987,-10757,-4496,20183,68516,-66350
502,-5785,21389,-16969,-11567,-9467,21950,73785,-62427
502,-5388,17669,-13978,-9648,-7291,18377,64569,-58737
502,829,-21374,8511,3264,8390,-16898,-6991,-55264
502,338,-25542,11840,5950,11395,-20366,-16296,-51997
502,-1833,16891,-17786,-14496,-18773,17953,72736,-48923
502,-3979,26887,-16383,-9427,-9133,21838,62130,-46031
561,-4385,-49839,32104,20326,36131,-40431,-88144,-43310
561,-2386,25438,-20184,-11030,-9073,20946,54327,-40749
561,-2068,19784,-15592,-8093,-6022,15793,42433,-38340
561,-1805,-43308,28328,20777,36239,-38648,-86566,-36074
561,-5332,42471,-28410,-18353,-19403,33576,84143,-33941
561,-4906,34922,-22623,-14826,-14606,27436,68877,-31934
561,-5505,23661,-12949,-9482,-7614,18497,40296,-30047
561,-4273,16122,-7804,-5847,-2621,11654,24394,-28270
561,-1665,-24641,18867,8272,12526,-23030,-38669,232888
561,-4095,-19295,15471,6520,8235,-18779,-28929,212749
609,-1955,-48811,36117,22478,36933,-44822,-112046,634264
609,-1912,-1978,551,-2499,-3042,-1465,-8561,398896
609,72,-5273,6337,5635,7902,-10531,-22534,240830
609,442,31602,-15690,-10202,-9681,20027,38465,5174
609,-183,19970,-8239,-3331,-1990,9332,16196,115637
609,-578,54742,-33883,-20933,-27049,41233,95681,208824
609,129,47301,-28939,-16755,-21542,35120,79797,213112
609,641,34296,-20761,-10965,-13035,24742,54996,278126
609,-3862,22986,-13366,-8783,-7050,16405,30246,494185
609,-4453,14335,-7364,-4775,-1087,9104,13521,555826
657,-4347,-24639,9004,2537,-732,-20259,-21208,2389213
657,-2224,36414,-30271,-21079,-35149,28227,88868,1484424
657,-4005,57329,-41106,-25361,-39539,42898,117597,883436
657,-3179,17638,-7547,-3736,534,10883,15245,1006453
657,-2129,11379,-3282,-852,4554,4875,2520,1025132
657,341,15893,-6396,-4072,-2050,6967,8623,1384027
657,2811,13559,-4986,-2316,-1065,5347,5667,1332243
657,955,-1137,4190,4391,7262,-7032,-21675,1421385
657,-3760,31684,-19475,-12660,-17901,23306,50838,1482592
657,-3163,21582,-12197,-7766,-9819,14751,30564,1474120
706,-1577,-46034,31074,19933,35609,-42506,-99236,2717325
706,408,17995,-13617,-7988,-10450,11767,29835,2004612
706,-1297,9818,-5057,-171,1176,1242,9114,1831638
706,-2868,-37177,19657,15334,13575,-39008,-53025,3164805
706,-1818,-78394,49507,33013,44295,-73858,-136150,3432625
706,-630,32917,-15290,-9365,-8454,20023,36014,1638524
706,-2708,25466,-9341,-5912,-4122,14110,23792,1601377
706,-2547,10769,1050,126,4797,1850,-2176,1670602
706,2489,33551,-10321,-4159,-9177,12806,24539,1651024
706,2780,23519,-2856,944,3664,4450,7086,1645507
802,-506,-56487,51142,33508,52563,-63417,-130491,2442347
802,-203,-42172,38094,24252,35159,-48946,-93994,2353299
802,-76,-29264,28261,18074,24333,-37590,-65209,2184539
802,292,49169,-19701,-12038,-18787,26503,57023,1147588
802,-1841,42505,-15676,-9292,-12567,21438,46847,1113025
802,-2134,38672,-12272,-6806,-13149,20598,43917,1133778
802,-1650,36514,-10892,-7157,-11306,19164,40746,1073833
802,-863,42310,-23786,-13673,-27463,23247,69860,1415242
802,-3153,66442,-36932,-22490,-38064,41392,106838,941961
802,-2827,41643,-17395,-8750,-13809,19114,53491,994462
851,-4097,9245,4800,994,3662,-7527,-3977,1481626
851,-1458,40611,-15699,-10782,-13668,17888,52830,1035235
851,-2290,-7017,19255,13950,25362,-25749,-37199,1294442
851,2381,-21914,26134,15407,23011,-34804,-56652,1617662
851,1406,-17479,22607,15762,21717,-32879,-48943,1533936
851,4846,50879,-20022,-12361,-12483,26407,58620,676009
851,3780,47450,-18395,-11743,-11052,24645,54525,642044
851,-1491,38072,-11283,-5184,-4843,15925,36817,768888
851,-417,34077,-8691,-4131,-2215,12147,29870,748201
851,1062,20106,392,1882,7174,115,6414,821775
900,-2217,-2296,10361,6849,6369,-16377,-18810,1285241
900,-1866,49904,-27203,-15124,-31545,28797,76060,753511
900,-2840,-33520,33382,26976,36632,-47867,-78995,1326107
900,474,37610,-15249,-5262,-9560,13831,37099,718969
900,-365,30654,-10309,-2920,-4528,9029,27099,721017
900,-3556,-19306,23647,22407,23982,-36091,-48546,1410457
900,-4413,-14505,20078,15996,17536,-29963,-36123,1309453
900,-3661,-23127,25870,17845,22172,-36484,-48466,1317627
900,3441,51014,-22509,-12019,-17671,27922,62939,478444
900,1725,44975,-19049,-12264,-14634,24128,53653,477463
949,1573,-43703,47197,33086,47989,-57893,-101228,1338303
949,902,-40433,41306,26098,37186,-51376,-84715,1398316
949,-1578,-21996,26583,15944,20566,-34740,-45925,1248588
949,-3419,80449,-42715,-31290,-32361,55944,120042,231599
949,-3658,67433,-34763,-26826,-25280,46767,98638,262047
949,-3613,41744,-16586,-6845,-4865,20031,47825,546928
949,-1158,38758,-14964,-4990,-4768,17615,41416,532864
949,-2548,32733,-11624,-1346,-2663,11980,29226,541637
949,-3371,-10652,16650,13232,16350,-25662,-26146,1134416
949,-1201,-22699,25201,16904,23390,-36449,-48107,1177677
998,-488,6618,6806,4898,8192,-12035,-15006,1057050
998,-2440,53856,-26597,-15266,-24883,29598,69653,628133
998,-46,27257,-5791,1260,562,2642,18027,689908
998,1877,46377,-15805,-7620,-6021,17799,36578,622903
998,2402,43299,-15009,-6017,-4976,15340,32075,598712
998,-3584,55478,-23988,-14697,-13151,33039,63682,502585
998,-3230,46706,-18997,-11047,-10453,26236,51550,507335
998,-3247,31541,-9565,-4384,-3583,13398,28330,571213
998,-405,37498,-12792,-7653,-9107,11243,27898,642279
998,1432,29791,-7935,-4626,-5914,5001,17252,644560
1045,-6165,-23598,29447,25383,27586,-45293,-67933,1211809
1045,-5459,-21493,27351,24554,26146,-43074,-58370,1136985
1045,-3183,-82166,70516,52987,72006,-98428,-159662,1489085
1045,-431,51464,-20209,-12223,-14011,26035,46099,500909
1045,2119,45525,-16651,-9873,-10633,21741,37933,492491
1045,808,46782,-16943,-21293,-14402,19119,35001,537470
1045,13,42425,-14095,-16137,-13044,16510,30597,514204
1045,151,105034,-61922,-36504,-62939,69302,154686,261347
1045,-447,81755,-44029,-23024,-37800,48067,102504,280631
1045,-2693,55445,-26141,-10550,-16716,26121,54240,370504
1094,-3419,-9594,23306,15639,25786,-32818,-64836,915817
1094,-696,42234,-15335,-8023,-13798,15145,31347,588562
1094,-1862,26634,-2939,3611,2627,-2196,-452,582166
1094,-280,-23552,33869,28632,38279,-51910,-84126,922566
1094,-77,-78444,72087,52220,75340,-99997,-173637,1198494
1094,-1562,53694,-19095,-7806,-8766,22250,33273,430206
1094,-1912,47657,-15647,-4445,-4314,17268,25352,421627
1094,-631,47770,-16802,-6344,-9878,17111,18152,443295
1094,1000,43322,-14622,-5614,-8182,14644,13803,425132
1094,113,30868,-6045,-814,166,4308,-4226,448398
1143,-2154,-11181,27074,20593,35675,-35489,-67600,677094
1143,-1815,55209,-23960,-14013,-16694,27111,54824,336533
1143,-2878,-4122,19689,15035,30769,-29916,-50674,549336
1143,-2364,43864,-16294,-8541,-7082,14999,22862,353227
1143,-40,38705,-12796,-6678,-5016,12316,17449,344703
1143,-1622,-33963,39142,32002,41606,-59639,-100053,707451
1143,1857,-67666,60295,44621,59804,-87654,-152296,853229
1143,2727,-55562,48017,35478,43501,-73183,-120615,799210
1143,-2332,58020,-23633,-13437,-13022,33195,56021,242457
1143,-821,51893,-21872,-10835,-11929,29213,50001,237362
1191,98,39437,-8635,-1287,4159,10229,5003,340609
1191,1468,-18312,33742,27265,46367,-45205,-92419,534145
1191,-329,-26205,36693,27410,43298,-50130,-93745,583329
1191,-5847,67328,-33592,-20321,-23635,43287,71525,161183
1191,-6340,51190,-22917,-14264,-13791,29662,46203,195752
1191,-9,51984,-21647,-12091,-9240,26350,39533,237252
1191,1968,46828,-18770,-10151,-7220,22497,32626,231530
1191,2897,13201,5908,9401,8570,-15978,-21061,392920
1191,5595,17115,2834,6514,3883,-10457,-11858,353153
1191,6138,-6450,19919,18095,21948,-32534,-53381,400134
1240,163,17107,-2644,-3968,1779,237,-1534,321699
1240,-2158,57673,-31910,-23085,-26975,37021,69434,162157
1240,-774,27967,-7772,-3425,2541,4763,9447,213366
1240,-1143,30415,-11471,184,2852,8169,2072,231840
1240,-1319,-27127,31407,25051,42838,-44925,-95107,386718
1240,-1811,60004,-32535,-21102,-20773,39242,58426,138126
1240,-2891,50454,-26442,-17327,-16262,31153,44144,147658
1240,-4836,43372,-20647,-11183,-6500,24452,26126,211220
1240,-5360,39886,-18722,-8328,-3948,21273,22297,202773
1240,-2114,27350,-10075,-1488,4402,9201,836,220239
1288,-500,8796,6034,10227,18060,-16620,-37094,285408
1288,-344,-2423,11486,9373,19651,-21001,-47925,323903
1288,-1537,39086,-20361,-11340,-12981,20058,34833,203624
1288,2631,43721,-19834,-8443,-6783,21021,19467,199689
1288,3703,39070,-17614,-6374,-2420,17256,13337,194182
1288,-3333,24108,-11766,1744,-58,9887,283,219355
1288,-514,-2228,7490,16399,19660,-17151,-47756,261436
1288,-2297,43633,-27037,-17405,-15644,32558,42908,143218
1288,-2859,36956,-22622,-13517,-11620,27103,32787,143363
1288,829,21580,-11706,-5918,-962,12912,5708,166414
1336,-5072,-21580,16699,17643,29602,-25862,-67103,277980
1336,-496,-62110,42459,34476,51222,-62026,-134978,368542
1336,911,-54518,34746,27978,38519,-53749,-111713,353290
1336,-3769,-29239,14055,16395,16358,-34700,-51042,277510
1336,-2178,-50685,28990,24471,31935,-52337,-91175,320569
1336,-2004,38201,-28397,-9496,-10470,29826,34851,123647
1336,-1271,27620,-21363,-4741,-4496,21422,19025,129212
1336,-2597,27262,-21574,-10530,-8823,23087,21163,136675
1336,-4060,22784,-18135,-7047,-5194,18828,15662,136375
1336,-6166,7424,-7232,783,3586,4043,-11704,159694
1385,-2358,18618,-19588,-8806,-14188,17337,23578,156124
1385,-4384,31094,-26666,-13044,-20140,27342,44450,108488
1385,-3387,14896,-13265,-3752,-6077,11118,10809,124447
1385,-4218,15863,-17456,-5962,-8823,16434,11686,127212
1385,-5961,11314,-13611,-4394,-5432,12168,4460,125712
1385,-2764,5941,-15553,-7773,-18630,7518,26466,156135
1385,-2793,56201,-48124,-31415,-48449,55097,113836,41340
1385,-2115,12015,-12569,-4996,-6960,16192,6174,111309
1385,-1256,8831,-10628,-1103,-2901,11627,-4054,109933
1385,-1213,-3103,-1431,1988,5379,476,-27890,125708
1433,-277,-64160,36503,30764,41724,-58282,-123434,261215
1433,2487,-42941,21816,20519,23754,-38685,-80671,217064
1433,-3271,22388,-22119,-15702,-14531,28547,34547,54221
1433,-3760,16503,-18659,-14033,-12618,24210,26215,58256
1433,-1120,4360,-9396,-6909,-4126,11167,1543,77730
1433,-2968,12531,-13478,-4637,-3960,13226,4479,81856
1433,-2229,9414,-11406,-1917,-2336,9291,-1766,81228
1433,-3655,37565,-32975,-16662,-26201,34618,65375,36364
1433,-3293,26522,-25556,-10315,-16787,25978,41331,43249
1433,-274,3523,-6819,-3057,5375,8990,-23932,84972
1482,-1490,-18816,4915,3658,5315,-13766,-75927,142186
1482,-2346,19639,-20250,-11840,-20130,19824,-4233,62343
1482,1544,-13911,5533,9128,9311,-15440,-78794,102351
1482,-993,-48410,19788,15017,21679,-39572,-175910,166980
1482,-1950,6977,-16743,-7943,-6244,17823,-111658,52098
1482,-1489,7062,-14242,-6112,-4525,14457,-111375,52972
1482,-1930,-687,-5877,-60,3184,2990,-126433,68704
1482,-2673,-3203,-8870,-943,-2071,9546,-110529,66610
1482,-2696,-7950,-6081,1595,325,4991,-110833,69356
1482,-4865,21875,-31328,-11661,-22963,25252,-25838,19854
1530,-2847,-49660,21863,21798,24161,-42178,-134590,131207
1530,-3779,-43752,15720,13359,13121,-31909,-106688,134932
1530,-1251,2442,-12167,-5532,-4840,11755,-24787,53879
1530,-4902,528,-10258,-5195,-4037,9323,-26475,51973
1530,119,-65777,31486,32320,35323,-55765,-183384,170663
1530,1279,-53899,22425,28019,25626,-46553,-150084,145141
1530,4019,-57042,22130,28727,26427,-49135,-149813,142493
1530,-2782,14328,-19693,-14407,-15628,26451,7410,8833
1530,-3769,6590,-12497,-8960,-9292,17571,-10691,21203
1530,-4912,7461,-13690,-448,-4338,12373,-24572,33793
1578,-1231,-44795,17909,18528,26125,-35330,-134726,99287
1578,-2034,-79278,38998,30926,45164,-65004,-209427,158585
1578,-6360,68008,-64308,-43653,-69027,74304,140895,-72951
1578,-6394,46753,-45369,-28738,-41302,51325,84805,-50268
1578,-4635,302,-14998,-7090,-8468,15882,-23490,30433
1578,-5493,-4664,-9532,-5990,-6621,9977,-34154,35990
1578,-1973,-37255,6981,13052,21778,-15719,-95568,77765
1578,606,-90720,40496,33878,53112,-63250,-211145,155910
1578,-2608,-82735,33793,24577,39359,-54585,-186068,149698
1578,-7548,10311,-17373,-10527,-11195,20262,-10392,19755
1627,-2661,5590,-23064,-12159,-22235,16990,-21262,34959
1627,-3888,10792,-24184,-12472,-18223,18436,-8395,14515
1627,-1633,-121,-12684,-9839,-11771,15095,-25371,23410
1627,-3561,-1110,-11971,-9308,-11043,14764,-27824,22860
1627,-10391,31494,-35859,-21481,-29792,43438,65962,-34226
1627,-10057,13320,-23358,-11595,-17957,26760,23632,-9131
1627,-1864,-625,-11867,-3346,-2488,9633,-39538,33899
1627,-1121,-3489,-10853,-2133,-4566,7799,-41043,34100
1627,1115,-16576,-2571,4411,1628,-4544,-68315,49223
1627,-3756,-88852,42771,32829,49451,-66709,-250298,151404
1674,1667,-64124,26875,21153,24881,-48911,-192412,124800
1674,-1452,4912,-15551,-8732,-7039,16748,-56945,17303
1674,-4036,3811,-13984,-7567,-6272,14707,-56974,17268
1674,-3268,-7089,-6163,-1494,1907,2750,-80311,29687
1674,-2856,-6208,-10569,-5381,-5810,9184,-89018,30102
1674,-3504,-7092,-9414,-2838,-4447,6664,-92561,29805
1674,-5711,26546,-37036,-21073,-35387,37200,6781,-30953
1674,-9871,9583,-24309,-12341,-20650,22741,-27172,-10885
1674,-5984,-14038,-7934,-2943,895,2064,-56999,28537
1674,-3282,-11937,-7814,-2879,-332,2097,-52329,27228
1723,-166,-71680,29719,26012,33368,-51186,-185254,107130
1723,-2342,-13016,-8814,-3362,-11024,4162,-38996,32691
1723,1219,-49182,16894,8012,14276,-32506,-117202,82050
1723,2226,-47567,15880,3881,14718,-31945,-112068,78550
1723,1138,3523,-17549,-11475,-8935,17492,29899,-1660
1723,1050,1517,-14108,-10375,-5081,14739,22837,1188
1723,463,-299,-11780,-7012,-7463,10143,24603,5092
1723,2502,-6940,-8442,-2731,1082,4015,9758,11118
1723,477,-17958,-2331,2884,9057,-4631,-13841,24695
1723,-1596,7210,-18297,-8404,-13696,20475,58910,-8246
1772,-4473,-29508,-782,8052,432,-16795,-33851,50520
1772,-3174,9664,-24011,-8758,-22300,16198,57992,-5511
1772,-2695,-9636,-8214,-1266,-3308,6226,28615,8678
1772,-1441,-17380,-2370,3100,3153,-1702,7451,17480
1772,-4425,-51149,16493,8492,12825,-36832,-76027,71542
1772,-4945,-47364,13928,10906,12886,-33477,-66310,63541
1772,-4973,1803,-16230,-1126,-7622,14958,59092,-6900
1772,-3898,-2579,-11730,-3117,-6587,11855,47631,-2106
1772,-3091,-13207,-2592,-2946,-250,1750,18511,12843
1772,-7711,-8365,-9431,-5059,-7508,8915,40092,3978
1821,-1597,-88071,41461,36153,47344,-69933,-161319,107507
1821,-2717,-71159,29106,25609,29528,-52926,-119332,92234
1821,-3622,20109,-22577,-13154,-16246,28434,95751,-30552
1821,-5513,16835,-18688,-12624,-16516,24485,82151,-24882
1821,-389,1069,-15230,-3831,-9099,12051,58384,-5192
1821,-1433,-6326,-7625,1651,-2550,4850,38550,5781
1821,-52,-41164,12070,15913,15208,-30050,-50081,53774
1821,-2877,-35336,9911,14260,11917,-26447,-41920,46781
1821,-2823,-45090,16345,20203,18370,-36108,-69662,56371
1821,-3425,8843,-15320,-2656,-10774,14643,62238,-11738
1870,1187,-18555,-4030,-4518,-6499,-1469,12843,19954
1870,842,13594,-23149,-14219,-21034,23669,87150,-27123
1870,-272,5570,-13967,-4848,-12448,12764,54994,-9750
1870,1470,-15771,107,6795,2789,-7811,3011,13350
1870,-1255,16071,-20519,-9089,-16644,27529,80552,-26699
1870,-3785,11391,-15784,-4149,-11189,20044,65051,-20311
1870,-3773,-2110,-6326,3048,-1375,6291,31783,-3912
1870,-3193,250,-9703,-4830,-4838,10146,50761,-7023
1870,-511,-4343,-6468,-1881,-1241,5203,36922,-1500
1870,-1620,-32468,8529,16437,8585,-28044,-46475,41709
1919,-6122,-50058,17786,13426,17118,-33970,-69625,52017
1919,-1925,8221,-17258,-10633,-20537,18186,71641,-16930
1919,3575,3395,-11156,-6625,-7379,11781,53882,-11529
1919,1360,2344,-9289,-5016,-5503,8651,45668,-8473
1919,-6220,-6638,-8256,-2284,-3423,6170,35279,-3628
1919,-2826,-35856,11406,11784,15432,-23942,-40528,30875
1919,-4206,-81871,40231,31845,40386,-66682,-158197,93665
1919,1606,20076,-19314,-10677,-10858,23706,80519,-32446
1919,2157,15199,-15515,-7368,-9114,20350,70541,-26797
1919,3271,8808,-13487,-8006,-12648,14095,54513,-14476
1968,-2245,-77662,34180,30204,36426,-61029,-146468,85947
1968,-1803,-52349,18486,15239,17413,-40090,-87781,58029
1968,-2908,-71722,28829,32833,30260,-64232,-134913,74671
1968,-157,1438,-17702,-5152,-22433,6734,45282,-5212
1968,-783,19232,-17641,-13724,-15206,24788,73388,-28724
1968,321,16045,-15664,-11993,-12783,21757,68822,-24677
1968,2910,6430,-9785,-6890,-6134,13036,48811,-13138
1968,-853,-30310,14346,17319,22836,-28370,-54682,31985
1968,-1260,-57178,28006,26102,32227,-50369,-120729,69121
1968,3672,14216,-20432,-11702,-15376,22032,72344,-26406
2017,-2310,-22807,3647,4049,4740,-12191,-25948,28552
2017,97,22746,-25501,-16738,-25648,29895,92488,-31406
2017,-2852,13757,-15172,-9747,-9490,19474,61383,-20438
2017,-764,10212,-12683,-6959,-7754,14588,49993,-16533
2017,-1928,67533,-52836,-36678,-56527,64869,193093,-94162
2017,-2201,48293,-39330,-26629,-37011,48484,138404,-70470
2017,-2518,30639,-27482,-16548,-21296,33232,93010,-48247
2017,-2999,8641,-9002,-3929,-4629,6116,29621,-6197
2017,-2613,6088,-7451,-2794,1693,4734,25563,-4723
2017,7,-71177,38113,31125,42104,-60612,-151203,85755
2065,-150,-43497,13557,15727,14217,-34751,-71086,42218
2065,-2032,-35402,9843,11116,7856,-27496,-53084,31729
2065,766,7939,-12530,-6886,-9542,11828,47176,-13030
2065,-853,666,-7448,-3253,-4246,4746,27825,-5482
2065,-978,3942,-9930,-3623,-5636,10037,37021,-6372
2065,-1820,371,-6508,-1968,-2418,7942,28524,-2646
2065,-2451,-12259,1161,3631,4277,-2780,-4331,11590
2065,-10717,55518,-52540,-30416,-60217,55418,177423,-76587
2065,-12563,40556,-37468,-17660,-37097,37378,130289,-64947
2065,-577,-1508,-859,-2183,2633,5339,15590,-2170
2114,1217,-164,-10104,-3355,-8324,775,12041,6757
2114,-1906,11872,-14033,-5233,-7831,9361,41599,-15336
2114,427,-40758,15157,13498,14249,-33453,-76845,45964
2114,1649,-41511,16245,14917,15259,-35379,-80560,45058
2114,24,7090,-10847,-8622,-5574,12478,38781,-15604
2114,1579,5646,-9570,-12816,-6795,9928,30334,-11779
2114,1338,-5730,-2162,-6748,6,-1632,-600,1929
2114,-3979,-1680,-5787,-723,-2615,5700,22839,-6653
2114,-4870,-5408,-1810,2813,3205,317,8221,240
2114,-2505,6302,-12445,-1175,-5052,14610,42821,-16254
2163,2934,-31470,12247,7219,10212,-24889,-74736,42295
2163,1518,14150,-15696,-10100,-17264,15400,45334,-15046
2163,231,376,-7851,-2146,-8346,2307,15381,-7949
2163,-841,-689,-6620,67,-6049,280,12446,-5828
2163,-1279,-46008,13907,14231,13381,-33541,-77660,43095
2163,-93,-58398,23988,22907,23719,-48817,-114021,55233
2163,2078,-119173,63061,52593,63265,-107604,-273375,127233
2163,-281,16367,-16975,-9065,-9750,16279,55081,-22772
2163,-746,9284,-11535,-4680,-5675,9781,37010,-15545
2163,-3351,10250,-9925,-7385,-5189,12461,37337,-14996
2212,-2611,-66252,32433,31290,32958,-57795,-149905,76691
2212,-3103,-39800,15213,18561,13676,-33687,-78888,44146
2212,1954,27153,-19503,-13681,-11425,23943,64080,-28649
2212,41,22458,-16356,-9181,-8827,19142,52721,-23311
2212,769,9878,-7872,-853,-1172,6146,19836,-9213
2212,-2109,12847,-10042,-11310,-11409,10892,45193,-17945
2212,-2515,6895,-7466,-7776,-6252,4697,26794,-10858
2212,3317,-47957,24349,24779,30236,-50623,-120602,52397
2212,783,-95394,51096,44031,56853,-90309,-233901,106167
2212,-1132,22374,-17520,-13522,-14479,25322,69062,-27946
2261,-5008,-12491,678,1244,1421,-5872,-15486,16501
2261,-2054,27564,-23212,-15821,-23702,28747,84869,-31999
2261,-2403,-63111,31291,27784,36825,-55980,-145393,70252
2261,-3551,-40387,13689,15410,15452,-33690,-85400,46898
2261,-1081,-41419,13270,16563,15147,-35222,-86185,45343
2261,-488,34154,-21341,-16458,-20705,33810,92054,-39659
2261,-902,30207,-18664,-14653,-16599,30319,81739,-35874
2261,-862,16483,-13771,-5847,-10287,17810,56928,-26178
2261,-1156,8823,-9110,-290,-4027,10027,38015,-18409
2261,1089,29227,-27930,-17337,-30425,31581,89942,-33809
2310,2133,-32074,12389,11289,15611,-22672,-66612,35276
2310,788,24911,-21904,-14914,-20696,29424,76418,-27134
2310,-5535,19877,-14071,-13122,-10263,18003,53627,-20372
2310,-4318,15562,-12018,-9172,-6645,14092,43601,-16434
2310,-732,2674,-4522,-1367,2139,1909,11336,-2571
2310,-2372,-49394,24154,17647,17537,-36933,-96003,50111
2310,-2073,-46281,21664,21673,14209,-37182,-89831,43781
2310,463,31363,-20692,-9976,-14951,25598,76197,-32903
2310,-2075,25647,-17769,-9082,-13363,21916,66032,-27776
2310,-17,18195,-12045,-4867,-9588,11659,39512,-14500
2359,-1287,-61941,26123,19013,29989,-52674,-137326,68354
2359,-745,-36957,10603,7861,9655,-28524,-71998,39535
2359,780,53497,-36368,-25090,-31783,48264,142037,-68318
2359,1268,44217,-27056,-19562,-22774,39534,113924,-54180
2359,1144,32978,-15840,-16241,-15577,29475,83031,-39574
2359,1342,18034,-17912,-7328,-6194,16126,40270,-14992
2359,-439,7030,-12866,-4026,-4388,8876,24537,-8209
2359,1542,-48034,20664,19255,21472,-43223,-106328,53940
2359,1431,-40714,15999,16366,16396,-37537,-89210,44248
2359,-2139,14280,-12771,-4686,-10009,16103,45557,-18224
2408,-5336,-39241,11144,18686,23769,-31833,-83460,49757
2408,-6628,16942,-19793,-9622,-15563,17936,57046,-11650
2408,-5079,5571,-7550,-3362,-3771,2359,23551,-5831
2408,52,12989,-8269,-5993,-5240,12394,38988,-14656
2408,126,11624,-9932,-5445,-4858,10341,32506,-12403
2408,-44,31872,-25787,-12196,-16183,25203,78568,-38487
2408,-309,22160,-18362,-7609,-10642,15089,54049,-27007
2408,-764,11543,-11249,-3203,-11432,9580,33164,-13749
2408,3,7789,-8663,-2809,-7205,6812,24769,-10454
2408,-3893,-5564,-510,2033,5500,-4593,-6524,3059
2456,4377,-22386,1516,3722,939,-14224,-43144,21631
2456,2205,29940,-25932,-16590,-24369,31065,82327,-34144
2456,1618,3194,-5690,-2941,185,3250,19314,-5439
2456,3303,3287,-4797,-488,-135,1597,16635,-4004
2456,1658,-2121,-1273,4054,2437,-4299,1430,2075
2456,-2344,8285,-6852,-3232,-7244,5558,16589,-3239
2456,-640,-2907,-1001,2587,222,-4475,-8149,6507
2456,-5162,30237,-27362,-23042,-22437,31612,93222,-43036
2456,-4867,14529,-14631,-12436,-5748,16390,51554,-24299
2456,504,6181,-11579,-3892,-3179,6233,14131,-2541
2505,-2082,-10807,-148,-1327,374,-1671,-8946,18308
2505,-3685,11351,-10219,-8703,-6378,14274,41268,-10025
2505,3401,-118057,60497,45321,61016,-105390,-274371,114872
2505,651,-102617,48676,36530,46443,-87781,-232140,101927
2505,1876,14683,-7782,-15405,-5128,22258,50148,-20392
2505,523,10547,-4236,-9799,-3049,16149,34577,-14523
2505,1788,-413,1945,-1804,1633,3075,1756,-1141
2505,-2948,11688,-11646,-9847,-5132,9250,34031,-10819
2505,-4081,5793,-7885,-10192,-2512,4939,20000,-6085
2505,616,13308,-12770,-3897,-10610,11482,39917,-14595
2554,-3213,16906,-17041,-10626,-15583,18384,56334,-18623
2554,-1694,-6867,566,5043,8839,-7341,-7480,900
2554,321,2682,-7328,-1556,-754,6127,25868,-10945
2554,776,1184,-5173,-226,423,3536,18970,-7924
2554,-776,-105125,53494,47396,55101,-100320,-269430,111141
2554,541,-82476,38157,32077,34445,-77258,-207703,89320
2554,-271,-32848,8263,9802,2751,-31515,-78859,35962
2554,-106,23245,-14001,-10335,-9460,19981,59683,-22399
2554,-3621,14062,-10404,-11104,-6452,13878,42535,-16580
2554,540,16980,-11963,-5674,-3928,18527,37786,-17851
2602,170,-31918,15700,16563,20140,-27267,-68173,27616
2602,2465,-67926,35993,31061,39314,-59174,-161278,67252
2602,6534,30822,-22344,-13024,-11865,26877,76509,-31981
2602,6368,22240,-16388,-8196,-7129,17535,52359,-23155
2602,-276,19533,-14222,-10112,-10666,16944,41140,-17657
2602,1264,15825,-11595,-7190,-6636,12855,32097,-14062
2602,1828,2801,-3120,-1091,2185,2011,3270,-3094
2602,3273,-82197,42689,40287,43905,-79063,-218533,76912
2602,3153,-83732,40363,34223,34652,-75165,-219781,85656
2602,4180,36203,-19387,-9051,-15914,28648,70733,-29603
2651,-5233,-48529,22725,23886,23058,-41587,-134095,46302
2651,-3789,6620,-12140,-3625,-14578,11506,19431,-6306
2651,-3098,-32905,15849,20256,26035,-34594,-99306,30470
2651,-1724,-41634,17981,19210,24233,-39064,-121572,44016
2651,-957,35053,-21388,-25001,-23030,38990,94950,-41866
2651,-496,28793,-17284,-18974,-16995,31379,77863,-34466
2651,-917,16494,-10715,-10270,-9553,18717,46654,-20348
2651,3186,25991,-17808,-14076,-16334,21318,62861,-26643
2651,-1116,17754,-12944,-6724,-9283,12832,40776,-19119
2651,-2584,-13702,-120,4193,1796,-11076,-40558,9671
2700,-3682,-4506,-2074,1113,-5296,1000,-10254,5310
2700,-4713,36941,-28552,-15003,-29442,36766,108338,-38968
2700,-3100,17470,-12025,-4215,-2481,14737,40737,-17698
2700,-2301,14263,-10366,-3045,-469,11516,32766,-15490
2700,2522,-52828,25518,19810,25738,-42183,-147685,52497
2700,2924,-40294,17576,14241,13719,-32097,-111198,38145
2700,2261,-45041,21406,17615,15103,-37532,-128192,41620
2700,-1555,34063,-19799,-14747,-16513,33251,98793,-33178
2700,628,29450,-16225,-11381,-10763,25123,72983,-26971
2700,-2269,17651,-14010,-5461,-10013,17646,60022,-19950
2748,-2034,-27023,12974,16203,20622,-29643,-87931,25618
2748,-150,-64759,33948,31629,40304,-63556,-205711,67134
2748,-1455,84384,-55649,-45355,-63671,80606,258236,-93180
2748,386,65285,-43888,-32357,-40884,60045,194020,-74501
2748,-811,14509,-13264,-9761,-10902,18986,49962,-16392
2748,-2128,11537,-12187,-6928,-8752,16688,43013,-14647
2748,229,4739,-8804,-3716,-3565,9855,22535,-7878
2748,-3194,-65280,32818,34321,35867,-58703,-193146,62903
2748,-2875,-57626,25882,27123,24534,-50286,-171766,58366
2748,-1041,17288,-13424,-10188,-14160,19905,56591,-18363
2797,-796,15400,-18449,-10037,-16442,17137,49242,-12745
2797,-3931,21408,-20070,-10059,-15192,20027,66279,-23581
2797,5377,15457,-13276,-2900,-13937,12230,38394,-12820
2797,4698,12653,-11188,-2833,-10960,9900,28308,-11559
2797,-3533,67681,-48159,-34806,-51077,62130,209857,-76253
2797,-3586,47808,-32156,-22823,-30677,43200,147885,-56927
2797,-2602,29091,-19814,-13511,-17187,26152,89730,-36404
2797,-6180,2089,-5458,-915,3013,2952,3203,-290
2797,-8050,-403,-2136,756,4756,683,-3108,884
2797,2939,-71839,42337,33913,44362,-67354,-226087,71004
2844,3890,-61989,23909,21125,20989,-52171,-185457,54682
2844,4287,-55099,19000,19890,16804,-47848,-173507,50573
2844,1362,19979,-14110,-1257,-7090,19215,51665,-17442
2844,1799,13197,-12361,2915,-9365,12476,30216,-11519
2844,1073,12414,-9194,-1849,-1896,9733,28273,-8715
2844,782,10079,-7682,2374,-816,6266,20026,-6120
2844,-72,43938,-28624,-20352,-25248,39413,127129,-46190
2844,-707,27480,-16784,-11568,-13097,25608,79038,-30363
2844,-2711,8941,-6925,-4551,-3283,11348,25676,-12707
2844,2860,1174,-5975,-390,-2511,4987,7548,-1904
2893,-7381,-61456,32623,27983,40818,-55699,-198747,62192
2893,-7177,-1156,-3952,-4658,-2751,2203,-9156,6091
2893,2014,-37266,15465,16375,13178,-36863,-126254,35986
2893,2031,-36999,17024,18662,14880,-38947,-128775,35542
2893,-3728,16755,-11391,-8671,-9489,15140,37447,-14245
2893,-2314,13448,-8663,-7758,-5358,11534,26332,-11315
2893,4922,12854,-7944,1647,-2134,8828,22450,-5822
2893,987,9224,-7707,2508,-299,7191,18781,-4797
2893,-168,3982,-6542,2391,2628,3128,5822,-1662
2893,2237,33038,-23616,-20173,-19140,27712,86292,-30294
2942,-3310,-14566,3466,4299,3849,-7941,-52351,15927
2942,-7212,22946,-17241,-12801,-16891,25510,70204,-22274
2942,1022,3475,-5057,-4663,-3522,6018,7356,-4258
2942,3694,3541,-5101,-3152,-2968,5741,7083,-3977
2942,-4181,-41775,17446,10423,14787,-37514,-142172,39229
2942,-4802,-40203,16358,9544,14599,-34965,-130482,37068
2942,-6498,-52958,24771,17783,26041,-47357,-167154,47452
2942,-583,14253,-10972,-7642,-5185,14840,42198,-15178
2942,-3944,7841,-6269,-4721,-3195,8910,23967,-8791
2942,10608,16390,-8930,-12820,-8683,16592,29386,-8204
2990,-8072,-48810,20478,17507,24273,-47086,-153611,40318
2990,-10910,-79792,39130,31119,41882,-71924,-253653,73692
2990,72,43571,-27327,-18358,-23008,38255,125227,-41378
2990,-436,35053,-21882,-15518,-17180,32377,102789,-34046
2990,4615,19438,-11716,-7479,-6717,13185,28328,-8933
2990,5222,11934,-9019,-5593,-4895,7990,10196,-4522
2990,5682,-44163,19541,16496,13305,-33786,-129260,37697
2990,3989,-40120,14254,16508,16601,-32454,-123357,34157
2990,2950,-43865,16206,19665,22223,-37983,-142374,38772
2990,2689,14920,-11060,-9999,-8921,17838,47034,-17160
3039,308,20660,-17427,-10454,-16668,17688,48943,-13735
3039,89,18801,-18033,-8046,-13472,14923,51777,-17740
3039,-7315,12835,-8618,-907,-6279,12524,32989,-7830
3039,-6883,7393,-5715,-639,-4622,9135,21677,-4654
3039,-1953,29639,-17335,-22656,-18321,31040,89527,-28221
3039,70,21081,-12031,-13529,-11953,22169,63822,-20729
3039,3311,7916,-9695,-3072,-3916,10553,17577,-4953
3039,1547,5782,-9423,-2025,-5051,9466,15049,-4297
3039,-3870,-6585,-921,3567,4452,-804,-19916,5565
3039,-2806,-39628,16058,8555,14034,-34057,-144961,40115
3088,3117,-2571,-1693,5876,-6337,-4561,-31772,9273
3088,1922,30483,-18942,-4893,-20419,22255,77232,-23817
3088,-1373,11171,-12707,-4466,-6945,8986,23082,-9035
3088,225,7064,-10517,-2428,-3298,5111,13665,-6678
3088,4882,6870,-2996,-380,4105,1375,-3621,-447
3088,7004,-1559,911,-1731,7662,-5642,-28571,5849
3088,4842,-41319,24119,9766,27725,-40824,-150896,39623
3088,4057,15106,-14530,-5491,-16405,18240,58608,-18074
3088,3274,2532,-6877,-2685,-8205,8784,23894,-9258
3088,1086,7663,-3716,-2355,670,8765,12713,-3657
3137,-7275,-81656,35372,38540,44094,-72312,-280532,76421
3137,-4994,-58010,16773,25149,22711,-50046,-202212,56615
3137,-1145,-38052,15975,10603,6003,-32517,-147392,36485
3137,-3457,-34513,17084,15124,13119,-34947,-131492,26908
3137,10703,31661,-18417,-11466,-8844,29618,79753,-23552
3137,6474,27399,-18221,-11718,-10203,26448,71532,-20907
3137,5145,17690,-14778,-9958,-7264,17951,43116,-14086
3137,-3095,14634,-8992,-2370,-3377,6408,18626,-7340
3137,-3520,-39737,23056,18649,27482,-43750,-154860,36719
3137,-8626,20174,-13476,-9925,-14514,20195,70226,-16577
3186,1834,-52726,25767,22178,31197,-46782,-186713,46288
3186,-655,-3469,-3737,-5121,-5710,1504,-24235,8197
3186,-574,23805,-11262,-5221,-7756,16559,47323,-12775
3186,2161,21171,-12888,-1521,-5835,10572,31260,-10180
3186,298,54228,-36110,-28430,-35610,48384,174357,-52905
3186,113,39792,-26430,-20174,-22525,34775,123893,-38779
3186,-4184,23260,-16290,-11087,-12218,19516,68441,-22626
3186,-7598,5171,-999,-6546,-3747,11316,25057,-4190
3186,-7845,3997,-361,-6604,-1569,10792,20093,-1829
3186,-3040,-4990,-891,4263,8167,-1697,-36840,7653
3234,823,-49432,23317,21170,21828,-48185,-187976,42349
3234,-2137,-41073,19446,13617,11931,-38925,-154924,35109
3234,-1808,19733,-13976,-9896,-13329,24408,71582,-20100
3234,-363,17716,-11523,-7856,-9983,19433,56210,-16339
3234,1650,8671,-11262,-3060,-4803,11583,14809,-4461
3234,-1152,3226,-6226,-3537,-1926,5010,-6783,1031
3234,-249,28169,-14188,-11363,-10275,23939,77207,-25750
3234,-790,19828,-6296,-7125,-7363,16689,48170,-16370
3234,-503,5044,-6346,-3380,-1398,4316,4284,-8447
3234,-4478,3631,-5750,-4952,-2267,3254,2417,-2938
3283,-1143,-46071,19845,17129,14586,-37659,-184786,47544
3283,321,-45628,17599,18083,9915,-34200,-181299,41938
3283,108,-41780,14713,15131,9217,-31150,-161990,37826
3283,-701,-42009,15060,13918,13589,-32086,-157135,36282
3283,-3370,16436,-14516,-6708,-7254,19322,59254,-16459
3283,-7041,6864,-7846,-1153,-305,10607,27441,-8673
3283,1572,11945,-13755,-2606,-8433,9141,17442,-7022
3283,2262,9852,-12200,-1681,-7547,7535,12489,-5168
3283,-5153,22699,-14875,-14848,-19577,20633,73577,-24753
3283,-8551,14074,-10748,-10748,-14470,17056,54479,-18154
3332,930,-911,-238,-3423,428,4762,-15922,1770
3332,1966,17133,-10662,-7250,-6330,15581,44249,-15365
3332,255,5548,-2087,-4405,-1165,8358,9379,-2792
3332,-1509,1457,-1068,-3328,354,4333,-6750,559
3332,810,-43129,16783,22327,19378,-40700,-176466,38482
3332,801,-43331,16784,23401,19000,-42106,-179294,37503
3332,-749,15961,-12825,-10606,-13064,17766,47388,-11818
3332,-2067,12887,-10223,-12718,-8954,14864,36393,-9439
3332,-1537,-716,-1941,-7244,620,2714,-13953,1991
3332,-1942,2504,-4573,-4893,-542,6745,8512,-5505
3381,-3933,-79314,35928,39529,38132,-73595,-308574,71047
3381,-1706,-56450,22349,24177,19864,-50986,-226421,50524
3381,-3418,25231,-18832,-15043,-12207,28377,95074,-27545
3381,-2441,17071,-14322,-9616,-5914,20060,62583,-19658
3381,3229,14989,-17559,-3256,-8998,13849,25121,-10437
3381,3301,12705,-17853,-290,-9386,10364,18584,-8000
3381,-1483,-37649,15899,13558,13254,-32657,-154067,28420
3381,-1376,-34331,12234,12495,11757,-29263,-138837,23909
3381,1699,-52396,20593,21732,23664,-46174,-205444,37663
3381,-52,18110,-12318,-3793,-2767,19571,58961,-16069
3430,-557,-52820,25933,17692,26868,-42854,-198834,43007
3430,1687,5532,-9746,-10232,-13205,12336,26859,-8672
3430,3522,18101,-7630,-10151,-2824,19782,51941,-15506
3430,6003,-28041,17178,13168,25149,-23564,-113183,19655
3430,-3360,30775,-17129,-11986,-12344,26882,101982,-27726
3430,272,28609,-17150,-7553,-9026,22320,83220,-23178
3430,1508,17008,-15017,-5669,-10695,15319,49611,-18882
3430,-259,11564,-10934,-3633,-10539,11999,36754,-15420
3430,-1892,-2677,435,2213,-1270,-390,-10949,-2532
3430,-4678,-34036,9821,11246,4210,-24540,-125169,24305
3479,-1401,-38555,21700,16979,31515,-33904,-152652,28281
3479,-1288,-14400,3944,2778,8013,-9209,-71963,13458
3479,790,15008,-12478,-11946,-11482,11517,43097,-13117
3479,-2882,11482,-9061,-9597,-8188,8841,32686,-10977
3479,-5690,-62293,28709,27566,40633,-51525,-218820,42760
3479,-3884,-64407,28884,24602,35320,-50987,-235506,48408
3479,1690,30071,-20391,-12374,-14143,26300,91569,-25427
3479,3552,27390,-15399,-6207,-6591,20844,73703,-20934
3479,3305,16903,-5773,3868,4357,8618,24298,-10041
3479,-1311,10374,-11198,-10174,-8342,10915,42406,-12772
3527,-4246,-47685,22992,22152,26755,-43324,-180652,33438
3527,-5422,-73945,34452,29042,33168,-64000,-289557,58940
3527,129,-67507,28035,26618,25605,-56914,-284474,49436
3527,2618,-12021,-1956,2163,-5351,-7558,-73696,4754
3527,347,28595,-20836,-12686,-15427,30619,110846,-27441
3527,1832,24342,-17747,-9738,-12351,24512,90641,-23267
3527,-4076,20122,-10285,-4986,-8153,19712,73869,-20905
3527,-7561,17270,-8503,-6212,-7459,17178,67555,-18592
3527,-4433,1192,-585,-3259,-267,3138,14422,-7322
3527,614,18135,-17251,-9375,-13213,19397,56956,-16300
3576,2167,-41106,18879,14618,11224,-33855,-182600,35309
3576,4027,19483,-15902,-11734,-26054,17021,36128,-11116
3576,-2610,7543,-11281,-13591,-13634,17808,59044,-15138
3576,-1697,4350,-7648,-9892,-7277,12697,34909,-11172
3576,1823,-81246,35006,30731,34130,-72348,-341829,59111
3576,-807,8662,-15653,-14106,-22794,11684,7019,-10298
3576,3229,14786,-14528,-4323,-13426,22827,76490,-20775
3576,-303,9197,-11101,1503,-6539,17241,56749,-18001
3576,679,-3923,-3661,9801,4034,3641,-1471,-6709
3576,-386,14488,-14907,-10686,-8840,19532,51933,-14221
3624,-5855,-49507,14719,9956,11225,-34579,-174511,30257
3624,-2078,-33481,7304,6174,5162,-23375,-122546,18661
3624,-583,25452,-19276,-9564,-2995,22023,91521,-22201
3624,-1480,15898,-12271,-6789,4187,14022,56519,-15369
3624,2528,12234,-10818,-7732,-5146,14057,46607,-13605
3624,4847,9532,-8634,-9920,-7106,11616,38447,-11301
3624,3739,36331,-22137,-24485,-26751,35763,135322,-37521
3624,6533,30028,-16455,-16625,-18508,28052,102514,-28416
3624,5673,20603,-8659,-10693,-12770,18858,63475,-18393
3624,1879,4801,-9575,4825,-10581,4210,2910,-1593
3672,-309,-66181,33966,29675,36206,-58207,-276574,51079
3672,2816,-53399,17272,18758,21646,-42165,-225137,40080
3672,2772,-43403,11728,13054,17944,-33347,-180960,29820
3672,2045,-50596,15854,17523,23410,-40407,-205006,34238
3672,2915,23655,-20864,-14987,-18274,26371,100827,-22219
3672,3161,19723,-16970,-11731,-13500,20867,81071,-17870
3672,1694,16357,-10100,-2796,-9894,13776,46383,-14968
3672,-2554,11144,-7476,-3196,-11291,7898,23461,-9241
3672,4952,39438,-24207,-24024,-28434,39684,154361,-40872
3672,3749,29062,-15826,-16446,-16972,28738,110184,-32519
3720,-5899,-8290,-4002,3340,-916,-436,-12233,-4285
3720,-461,3108,-5579,-3213,980,7905,14117,-6285
3720,-1466,1036,-3627,-1088,3695,5790,7439,-5230
3720,1580,-11794,4639,4223,9607,-5985,-45622,5103
3720,-3828,-75023,35553,33506,41157,-62686,-307615,57782
3720,-1920,-54934,23457,22731,20600,-44704,-229164,41661
3720,-4614,16541,-14158,-8602,-8615,22959,79032,-20494
3720,-835,13943,-13247,-7563,-6682,20675,68112,-19926
3720,4756,5428,-3818,-4774,-6004,10991,40088,-13113
3720,3334,2175,-3865,-3572,-6861,8870,30733,-11300
3779,-10610,-81027,36209,31871,37764,-66927,-323522,63354
3779,-1171,53374,-31596,-30390,-32815,52325,222427,-54079
3779,-950,39282,-22713,-22827,-24472,41100,169342,-40789
3779,-1307,3369,-8927,-6313,-6507,11384,24820,-9445
3779,-1984,2929,-6985,-5518,-4808,11051,21981,-9160
3779,-3686,-6660,-569,-264,1550,1334,-20441,-609
3779,2194,-68981,32174,33503,36426,-61183,-292832,53107
3779,2528,-49556,21069,22862,22979,-45378,-228369,38481
3779,-243,10651,-10456,-6784,-5833,15978,51498,-12202
3779,-2019,9263,-8064,-4924,-8878,12809,42733,-10745
3828,1417,-86078,37528,30407,36492,-72089,-341993,59906
3828,-2652,-70246,26267,22028,28346,-54677,-271800,46610
3828,-1312,-55374,17396,16635,19953,-40709,-204438,31974
3828,876,71932,-48058,-32022,-43366,63199,295082,-68368
3828,-1164,51525,-34580,-20481,-29497,45706,219177,-50714
3828,2997,4765,-5324,-12352,-11467,16795,48669,-13380
3828,3411,2784,-3576,-11375,-10338,14122,43555,-13113
3828,373,-5323,1453,-6872,-4824,6559,17097,-7430
3828,-5558,-54236,26950,24477,32510,-49917,-232030,40674
3828,-8760,-57077,27227,19069,28265,-47611,-250221,45892
3877,-3741,-4744,-8571,-5398,-8652,5608,-7468,454
3877,-1702,19104,-19035,-14865,-19225,26098,102526,-22739
3877,-2726,-34502,13743,13735,15199,-24418,-111320,16625
3877,-3441,4582,-10700,-6372,-10943,16644,61920,-13493
3877,-740,5084,-8920,-5680,-9929,13259,49224,-11145
3877,405,58408,-39550,-29904,-36588,52136,237326,-54023
3877,588,45619,-30633,-21891,-25243,40104,181282,-40205
3877,-636,30949,-20707,-13092,-16982,27311,121503,-27182
3877,-22,4320,-5291,-3964,-5358,7461,16943,-4115
3877,933,1645,-3422,-1327,-4997,4136,1885,-1689
3924,-3489,-62143,23037,27818,23066,-57349,-293977,49972
3924,-3819,-43876,13504,15131,12141,-36971,-201982,32911
3924,-2663,-40553,12340,11030,9907,-32475,-175860,27515
3924,-1912,13459,-11826,-4567,-2974,18711,69025,-11887
3924,-2608,7775,-7979,-2947,734,12486,43125,-7062
3924,326,4313,-5378,-6105,-2998,12352,43677,-8755
3924,-5771,-49,-3480,-4301,-779,10465,36954,-6683
3924,377,35261,-21350,-19410,-14857,31912,135682,-32106
3924,3063,23521,-14441,-13795,-9101,20341,88203,-20149
3924,3760,8252,-6208,-5408,-2487,6673,26403,-6360
3973,524,-67258,36466,32329,43547,-56345,-279920,46690
3973,-336,13268,-10216,-4050,-10009,15694,55353,-14035
3973,-483,-25947,11679,17600,16767,-23735,-102405,17778
3973,-2451,-37075,12975,20691,13972,-31426,-160107,25876
3973,-2369,-34822,12986,17877,14648,-29523,-144373,22016
3973,3885,18207,-11667,-10159,-15062,14512,70846,-13018
3973,4637,17677,-10580,-9299,-15367,13232,66595,-12143
3973,140,11206,-8493,-11634,-7764,13409,38383,-7881
3973,-1418,7346,-6529,-8024,-3244,10491,26260,-7269
3973,-2133,-6796,546,-1170,3379,-1623,-26627,1925
4022,-30,-38463,15711,15704,10224,-30566,-165890,29790
4022,-1351,15714,-12955,-11097,-19511,18184,68565,-13141
4022,-4001,3927,-3299,-2752,-3139,5000,27543,-7562
4022,-688,6968,-9416,-11682,-5147,3882,12094,-8748
4022,-1574,4403,-6895,-14657,-7703,2113,1835,-5041
4022,-3307,-40387,14596,14731,13403,-31902,-169802,23956
4022,-1066,-35564,8857,12887,7379,-28880,-153571,20110
4022,-2820,-97339,41001,43018,41044,-86785,-412344,64890
4022,562,22777,-19072,-8897,-16269,21787,84484,-17719
4022,1214,18336,-16009,-6485,-9725,17986,68893,-16045
4071,4572,-65049,33037,32014,37056,-63336,-301441,49422
4071,5771,-64435,30361,25623,29330,-58697,-305830,51062
4071,3834,-46220,19827,16325,16737,-41663,-226399,35502
4071,-1442,34805,-23199,-20207,-19617,41329,174030,-30219
4071,392,28000,-19454,-16678,-16085,35098,149802,-24934
4071,2213,22250,-15300,-8779,-13797,17103,79929,-17290
4071,-69,14838,-12918,-4142,-8782,11874,58654,-12920
4071,-737,-495,-3722,3581,-1037,638,2730,-2910
4071,440,-30445,7309,6462,4794,-18653,-112994,13268
4071,1185,-35180,11303,11267,8301,-25742,-150879,19458
4120,5185,-19118,6052,2774,-552,-14864,-113317,18046
4120,5734,32334,-23690,-16840,-22244,28076,112780,-22865
4120,7427,9577,-10368,-1134,3620,4223,25350,-9626
4120,-3615,-65693,28683,24788,31010,-52472,-264821,41923
4120,-4152,-53439,17741,16895,17596,-39655,-223637,35845
4120,-1018,32936,-18670,-19290,-19685,36855,164472,-33839
4120,793,26134,-15925,-15754,-16557,29937,126958,-27261
4120,-1649,11278,-10102,-6462,-7446,15111,53228,-14024
4120,3204,18001,-9153,-20241,-11586,20680,79465,-13790
4120,662,12439,-2620,-13419,-6804,14594,54712,-9875
4169,806,21366,-15159,-11138,-13546,25023,81303,-19262
4169,4748,29367,-17664,-11252,-14792,27935,122564,-27691
4169,6798,-39247,19680,21762,24718,-35869,-171129,22103
4169,12,16270,-13995,-2535,-7290,15022,66844,-14389
4169,262,10574,-13550,-4595,-8916,13606,59678,-11962
4169,-2586,-76183,34352,30643,36919,-62250,-318315,49337
4169,-1576,-53466,20058,18778,17696,-41483,-231011,34353
4169,-3551,-44695,15998,16421,13323,-35778,-192924,26898
4169,-3695,35211,-20034,-15218,-18389,33360,149213,-30272
4169,-5117,23637,-17146,-10284,-11711,23884,109184,-22864
4218,2484,-69737,31257,29279,28274,-57762,-317532,43594
4218,2445,-45488,17197,17360,10130,-35488,-213778,24694
4218,-342,-36663,13649,14101,6334,-28577,-170190,17891
4218,-1878,67113,-39174,-27268,-35131,58911,304815,-62233
4218,-3904,50440,-28111,-21257,-25168,43434,233414,-47793
4218,-4827,20907,-12968,-10722,-10354,23350,108372,-22673
4218,-5444,19236,-11394,-11066,-10173,22600,103649,-22131
4218,-7102,10028,-6727,-6876,-5611,15430,70986,-15665
4218,-1031,-49018,21395,17857,17137,-40161,-207023,25434
4218,989,-41273,18344,13861,13837,-34384,-175485,19455
4267,3559,-40196,20580,14177,17456,-28773,-165384,18060
4267,4106,23340,-7132,-8546,-4838,22247,102516,-29560
4267,1410,-44865,26949,24353,34164,-41620,-197972,23605
4267,368,22960,-14323,-9680,-9806,21429,93923,-24046
4267,-381,19475,-13954,-7731,-4461,18219,79267,-20777
4267,-85,58497,-34510,-25897,-31111,52002,223167,-56628
4267,-988,45976,-27388,-21432,-25946,41097,173914,-43753
4267,278,29309,-18188,-15098,-17583,26495,107702,-25724
4267,1244,12581,-11529,-5499,-7011,16186,51763,-13863
4267,1486,7619,-8474,-4363,-5266,12052,37509,-12403
4315,-1876,-33243,13982,13900,9462,-33529,-187817,21814
4315,1173,-26961,11588,11315,5529,-27373,-159150,17234
4315,1546,-34766,16244,15768,12107,-34734,-187443,21531
4315,-488,14681,-523,-7258,-5106,16347,47493,-23682
4315,-1336,9584,1219,-4307,-5451,10252,24682,-18811
4315,-1418,10289,-5632,-4618,-5102,10808,21393,-15301
4315,-1000,9897,-5986,-4142,-6852,9584,19360,-15104
4315,-1374,-1480,-2786,1798,-1528,-1988,-27009,-6488
4315,-4730,62089,-38812,-28351,-39125,54136,211572,-76983
4315,-6568,40803,-26044,-17399,-18619,34621,127882,-57424
4364,182,-12044,1438,1238,1102,-11034,-121534,-5293
4364,1886,19085,-15511,-10825,-12256,14880,10463,-34753
4364,1715,-24913,10565,13230,17911,-28334,-157184,-683
4364,-913,-101339,47584,45136,45828,-93226,-464114,48475
4364,564,-111456,50130,46074,43945,-100386,-509234,62221
4364,-4156,30611,-14938,-10667,-12851,22960,28732,-50508
4364,-1582,26394,-12973,-7827,-9758,18768,17839,-43549
4364,-386,12145,-5794,-183,-812,5851,-31191,-29067
4364,-2568,24125,-13360,-10097,-12064,14875,18124,-58074
4364,-2816,17535,-8872,-6439,-7664,8827,-783,-49818
4412,-2664,-27671,19774,20831,22260,-43598,-153814,-4499
4412,-1644,-12245,9837,7946,7546,-23643,-101385,-16728
4412,1128,26139,-9380,-8714,-13520,11075,38874,-62470
4412,560,37362,-13545,-7233,-7593,12193,761436,-93908
4412,1737,32681,-10860,-4727,-5854,8957,743127,-87106
4412,-5717,-3321,10567,9568,8847,-28562,1173391,-77318
4412,-4553,-22164,21178,20326,20099,-46840,1064472,-49460
4412,774,50984,-14279,-11561,-14861,18210,1373272,-163202
4412,641,45838,-10720,-8926,-8657,14686,1289312,-150160
4412,455,53850,-8889,-5340,-4000,10549,1250067,-170615
4461,-2185,-28644,37486,35786,35330,-69377,977058,-29909
4461,-3522,-16202,27176,24720,17890,-53594,957083,-43174
4461,3864,80915,-19616,-15034,-17490,28285,1115570,-230363
4461,2685,72898,-16082,-11946,-14804,22980,1040515,-212013
4461,914,56948,-7966,-5123,-6618,9884,950000,-177824
4461,1491,71390,-13700,-6204,-7352,12885,924422,-195121
4461,498,63865,-10088,-3752,-4591,7272,859423,-175930
4461,582,31583,8773,9090,6459,-25920,757019,-103973
4461,-939,33654,7378,6718,5843,-21519,719419,-108015
4461,-4152,82667,-10992,-9458,-9695,15187,742816,-226272
4510,-18,61612,27,-22,-4179,-3332,659765,-159199
4510,874,84715,-14337,-9199,-15150,19255,677014,-239725
4510,2312,36906,12823,16996,16888,-27037,537208,-112418
4510,183,10320,30361,28105,31390,-54870,417936,-5330
4510,-1046,23971,18990,17853,16468,-37322,429692,-43480
4510,-3515,102370,-17290,-13783,-16335,30439,523198,-341666
4510,-2846,95341,-16819,-11425,-16070,26739,487196,-315806
4510,3910,94605,-8508,-7033,-3704,19223,426295,-291851
4510,1961,86136,-6629,-4936,-3043,14646,393919,-261975
4510,3452,71352,-896,109,1376,4034,349831,-200436
4559,-714,69947,2489,2811,-272,-6756,297321,-111649
4559,-179,110056,-22487,-17629,-25072,34485,366231,-342302
4559,-160,34330,24470,23889,26798,-42290,195051,40584
4559,-1409,98977,-8736,-5636,-8610,17846,283582,-359054
4559,-1926,88732,-4900,-3808,-4875,12034,257289,-310989
4559,169,33048,31792,25607,28082,-47231,128717,180780
4559,-2324,47339,18414,15738,14512,-28515,156709,83860
4559,-1497,116979,-18644,-13893,-25004,33684,245250,-525532
4559,-772,105573,-14522,-11425,-16095,26913,220655,-455797
4559,544,91005,-7243,-5488,-6346,15420,189294,-343709
4608,1973,33692,29712,30142,29838,-51531,49476,250382
4608,923,34323,24677,23843,20079,-43607,56911,308766
4608,282,45860,14620,15584,8436,-28071,82402,201739
4608,-3917,141082,-29876,-29466,-30305,61654,225264,-917291
4608,-5512,125174,-21596,-22749,-21441,50451,193947,-817975
4608,-757,105508,-11298,-6987,-10647,24962,120091,-715616
4608,1236,93549,-7220,-2822,-6887,16850,101079,-600669
4608,7077,41852,27460,21590,9691,-35820,-7902,207355
4608,5335,50953,17906,14189,1503,-22060,18096,125173
4608,294,41369,20148,17232,5764,-28376,6253,250084
4657,-932,74636,1714,869,-3722,3649,28182,-934872
4657,-1597,107963,-21495,-17383,-25685,40027,93882,-1541999
4657,-1123,78818,-3603,-209,-3499,10537,43976,-1284223
4657,3061,97572,-15998,-7966,-10865,27121,47751,-1931170
4657,2946,90270,-12893,-5957,-8718,23183,40547,-1797703
4657,242,122761,-30876,-24550,-28070,57557,93877,-1932374
4657,344,104714,-20952,-16942,-21730,43689,65995,-1815781
4657,-1186,80763,-6624,-6607,-5668,21347,7916,-2023846
4657,577,74966,-4596,-6349,-5414,18327,4027,-1902476
4657,664,61833,1544,727,2529,6594,-14338,-1643175
4704,6584,15825,26653,22270,16008,-38209,-85278,-406060
4704,5489,25347,17935,14240,2796,-24178,-59926,-473416
4704,1839,80539,-14934,-8244,-11989,24675,-7807,-2301106
4704,1443,74996,-12915,-7165,-12090,21354,-10822,-2170911
4704,677,60691,-5321,-1459,-4502,9667,-27662,-1896411
4704,346,70078,-10541,-6352,-14509,19469,-20956,-2245580
4704,2641,62466,-6942,-3650,-10505,14268,-26624,-2069018
4704,3170,13861,23083,22044,11785,-41969,-95265,34904
4704,1704,-5961,33108,28868,22313,-58053,-124515,480052
4704,-1646,75958,-4133,-10392,-8999,28429,-21804,-2559320
4752,6240,18967,25985,22214,24740,-33809,-115277,-1422247
4752,2915,47721,-4442,-424,-7058,2751,-54031,-1525803
4752,5171,37281,9920,9169,1179,-14514,-80469,-1351616
4752,5779,34893,7780,11321,2448,-14912,-76183,-1228896
4752,6755,26564,9230,15451,6755,-20558,-81000,-1013764
4752,1684,81167,-16810,-16059,-20290,39142,-8602,-2618042
4752,-2063,72155,-12180,-11972,-13966,31895,-16094,-2435068
4752,2643,66676,-16924,-11889,-21576,27405,-31630,-2683814
4752,1237,56553,-11990,-5485,-14474,17264,-42547,-2420263
4752,-1877,92051,-27237,-21565,-34875,45250,4974,-2535013
4801,1916,75179,-24598,-18928,-33380,38663,-7993,-2391937
4801,396,51747,-7500,-3793,-14089,13532,-42911,-2158057
4801,3300,56907,-4469,-5681,-9680,18042,-49227,-2567482
4801,4297,52971,-5149,-4906,-9514,15810,-48513,-2418404
4801,3896,40887,-181,169,-4120,5484,-60720,-2135164
4801,-601,11004,16971,12782,2475,-25272,-100806,-1177446
4801,163,11981,15933,10800,1291,-21605,-90833,-1108180
4801,1002,59094,-14371,-11056,-16904,25895,-38304,-2592940
4801,4014,48967,-8549,-6090,-11934,16687,-48203,-2355137
4801,1892,44577,-3177,-7598,-6671,18775,-50463,-2620258
4850,662,-18793,33258,34401,33049,-59751,-165744,-1151637
4850,1901,-11982,26510,23672,19535,-47514,-139559,-860996
4850,1246,72867,-24300,-20385,-32252,44716,-7196,-2649766
4850,380,63882,-19836,-15074,-25045,37031,-15938,-2494475
4850,-2213,47651,-10313,-9853,-17380,22744,-35364,-2197173
4850,2462,48446,-5065,-8065,-14138,18578,-46395,-2484731
4850,237,43052,-4021,-5490,-12248,13968,-48828,-2312476
4850,1933,6600,14611,10154,6621,-24119,-100854,-1209061
4850,3757,7673,11111,8369,3396,-20218,-90751,-1151972
4850,3695,44431,-7707,-9921,-17563,20290,-45985,-2614919
4899,2817,17008,4363,1052,-7675,-5353,-80593,-1728606
4899,1218,49187,-16688,-15009,-24984,27962,-20912,-2266645
4899,-1377,20580,3787,3697,437,-4627,-67703,-1894915
4899,-153,31391,-7888,-1446,-4123,4092,-68223,-2336104
4899,-999,-22536,29698,29008,31209,-53794,-151896,-1283075
4899,1312,55641,-20365,-17351,-24055,35954,-14878,-2150895
4899,1016,46935,-15060,-14027,-20031,28645,-23045,-2023739
4899,84,34250,-4557,-7036,-11896,15055,-48129,-1904101
4899,1097,32232,-4628,-7230,-12496,14352,-45792,-1791535
4899,1813,22375,1269,-2434,-6547,4881,-57185,-1685625
4948,2405,-4826,16439,11330,8973,-25849,-106690,-1387517
4948,1341,37133,-11750,-13123,-21895,21171,-26241,-1503948
4948,1873,36199,-9126,-9576,-16133,18293,-26854,-1415039
4948,2537,31778,-3091,-6021,-5212,14147,-47347,-1331385
4948,2244,28001,-2172,-5105,-4432,11718,-47468,-1252677
4948,3535,15507,5613,3861,28,-6779,-79674,-1178622
4948,3365,-38166,39315,32397,34114,-62317,-163209,-1108945
4948,1967,47395,-19885,-16579,-26860,31440,-18618,-1043387
4948,1450,42866,-20199,-13081,-17315,25311,-24815,-981705
4948,978,30564,-14866,-5308,-7650,11312,-43609,-923669
4997,3978,-39173,29949,26914,20475,-57444,-155807,-869064
4997,2988,-19769,16095,14950,4415,-35751,-111850,-817687
4997,2689,-17016,15138,14052,4121,-33256,-101997,-769348
4997,358,63616,-30453,-29007,-41124,53776,35823,-723866
4997,775,45150,-18462,-18428,-26200,36136,3272,-681073
4997,-14,32272,-8596,-6140,-16053,15013,-45567,-640809
4997,59,28415,-6451,-7420,-15329,13406,-45345,-602926
4997,722,19621,-3937,-6828,-15110,7930,-58383,-567283
4997,1858,-638,8037,6658,10,-15148,-91124,-533747
4997,2693,-46169,35705,31132,29586,-62522,-166049,-502193
5046,5300,36007,-12764,-16040,-34272,25913,-19915,-472504
5046,4118,24058,-3185,-7076,-17478,11975,-40061,-444571
5046,2475,-33423,31190,23060,22438,-46591,-139198,-418289
5046,2204,28700,-7954,-8899,-10024,16168,-40737,-393561
5046,2705,25834,-6039,-7212,-11011,13268,-42001,-370295
5046,501,30281,-19557,-17790,-43319,20019,-8326,-348404
5046,450,70452,-41370,-34255,-59595,59381,59956,-327807
5046,3776,29723,-12897,-7030,-17264,13741,-48655,-308428
5046,2890,25841,-9937,-5722,-15314,11193,-49036,-290194
5046,2422,14221,-1180,-262,-7812,448,-63913,-273039
5094,1859,-23618,14857,15152,1248,-36650,-113800,-256898
5094,1784,-20855,14461,13951,2790,-33423,-105234,-241710
5094,1031,-10317,11038,9005,712,-21726,-81821,-227421
5094,1535,33196,-8345,-9059,-18345,17893,-36606,-213976
5094,2107,26278,-2667,-5170,-14008,10350,-45774,-201327
5094,4480,26939,-4069,-4264,-14112,10408,-48817,-189425
5094,6192,25028,-2274,-2789,-13656,8589,-47788,-178226
5094,16,44627,-16198,-16851,-22973,31494,-2127,-167690
5094,222,33959,-10870,-10020,-16534,20493,-21098,-157777
5094,935,24808,-1313,-3980,-12683,9631,-48206,-148449
5143,3072,-36948,23738,25944,25100,-51248,-150617,-139673
5143,2083,3190,-1705,-324,-11007,-5398,-65258,-131416
5143,1016,-9450,15099,10000,-3279,-26138,-92813,-123647
5143,1740,-9000,13535,9815,-924,-24956,-88834,-116337
5143,1925,-16667,18227,13692,6086,-30455,-97219,-109460
5143,3518,36498,-11286,-11000,-13674,22439,-24567,-102989
5143,2940,29718,-6899,-7981,-7011,16955,-29914,-96900
5143,2168,28777,-1057,-7146,-17379,14539,-37585,-91172
5143,2036,23353,-1161,-4086,-13388,8649,-44235,-85782
5143,878,42356,-19006,-12636,-23121,23527,-17393,-80711
5192,4850,-3862,9772,8373,1784,-21001,-91946,-75939
5192,6177,38241,-17349,-12884,-26337,22648,-7587,-71450
5192,1692,30154,-2730,-5884,-15605,11830,-40903,-67226
5192,1272,26925,-1004,-4178,-11109,7967,-44405,-63252
5192,695,17810,3339,1322,-4228,-2780,-59386,-59512
5192,-3678,-8937,13774,11096,2683,-25361,-84645,-55994
5192,-1402,-15846,18291,15331,7194,-32462,-93875,-52684
5192,-2047,35502,-13722,-9273,-16827,18570,-26485,-49569
5192,-1076,31740,-9450,-7900,-15061,16025,-27107,-46639
5192,1835,29763,-3279,-5001,-12106,11997,-36959,-43882
5241,2912,-33412,32058,29801,30821,-57102,-155612,-41288
5241,2763,-31855,34477,24746,22436,-51217,-137712,-38847
5241,2276,47101,-19021,-19042,-33653,32540,1813,-36550
5241,1980,40967,-15830,-16424,-27157,27187,-3402,-34389
5241,1819,27801,-8186,-7087,-13815,13301,-23890,-32356
5241,-1330,34535,-5720,-9494,-11199,15913,-29445,-30443
5241,-414,30986,-5301,-7000,-7694,12491,-31795,-28644
5241,5730,-1535,3442,8503,-199,-23557,-79445,-26950
5241,5252,-8943,10858,12407,7088,-30059,-89145,-25357
5241,-1684,38323,-5449,-7436,-15135,16023,-27910,-23858
5336,1205,-76419,66313,46423,41355,-102137,-227558,-12204
5336,333,-114,14600,1828,-17055,-19500,-63930,-11483
5336,157,44161,-12589,-10956,-15959,23489,-14482,-10804
5336,-1367,38029,-10347,-8020,-13306,17917,-21072,-10165
5336,-195,44836,-12612,-8086,-13114,17588,-25310,-9564
5336,334,43014,-14283,-7325,-11841,16115,-24811,-8999
5336,420,34234,-11948,-3153,-6576,8524,-36142,-8467
5336,-218,66036,-30237,-19516,-24079,37938,25103,-7966
5336,-53,56666,-24316,-15171,-17862,30437,9260,-7495
5336,-579,42050,-12961,-7398,-8813,23791,-30665,-7052
5385,1338,-23607,35305,24758,19921,-50546,-153958,-6635
5385,1600,21985,1302,-3326,-16702,-2301,-44088,-6243
5385,306,-55974,43531,38920,39260,-80134,-206649,-5874
5385,-101,-42216,31749,27681,23383,-61131,-158837,-5527
5385,1688,49886,-767,-10459,-2446,27415,-11729,-5200
5385,2580,43087,1420,-8423,-4817,22119,-19332,-4892
5385,3471,30408,1261,-3169,-4304,10810,-39745,-4603
5385,2652,35865,-9673,-8189,-12043,20868,-20467,-4331
5385,4047,30356,-6193,-4727,-7819,14230,-30949,-4075
5385,-663,50484,-21362,-13270,-15409,27130,-5316,-3834
5434,49,6145,14654,3705,3338,-8691,-77449,-3607
5434,391,43466,-9912,-15118,-20330,29459,12746,-3394
5434,2287,41638,-16915,-6328,-8718,16950,-31394,-3193
5434,2600,36166,-14059,-3743,-4572,12440,-37328,-3005
5434,435,-58547,41616,39467,39704,-86255,-235161,-2827
5434,395,-33664,20436,23941,18104,-57901,-163233,-2660
5434,7,-2933,4315,9986,651,-27066,-86185,-2502
5434,1823,50502,-15768,-12520,-16520,28434,-13486,-2354
5434,1148,45826,-11344,-11281,-8975,26186,-15312,-2215
5434,996,45324,-14851,-7875,-11553,21135,-45739,-2084
5482,-2487,-27157,32013,25801,25508,-50082,-203815,-1961
5482,-1926,-19586,25017,19291,17744,-40262,-171004,-1845
5482,-557,59847,-25947,-15494,-18002,35244,-16717,-1736
5482,403,53790,-21255,-12095,-14303,30522,-23046,-1633
5482,-2151,39944,-9181,-9711,-5531,22271,-51502,-1537
5482,-2427,32181,-4208,-6217,-3589,14786,-63471,-1446
5482,-2592,22080,844,-2152,-250,5672,-80784,-1360
5482,5231,1627,8633,6988,9293,-21806,-138271,-1280
5482,5094,51375,-25994,-19791,-25273,32277,1584,-1204
5482,2421,39935,-7127,-9297,-9033,19081,-47586,-1133
5531,-497,35403,-16716,-10541,-11591,16655,-47181,-1066
5531,-572,42563,-23137,-10100,-11965,20040,-27420,-1003
5531,4157,-17807,20199,19231,22184,-39873,-171970,-944
5531,3323,-7414,11467,13907,14095,-28848,-130770,-888
5531,1754,45616,-14034,-13893,-10548,29389,64671,-835
5531,1801,38582,-10110,-10398,-3939,22655,51379,-786
5531,1856,26722,-4862,-5044,3411,11757,26503,-739
5531,-1677,39648,-12354,-6775,-8473,12917,87207,-696
5531,-618,30600,-8780,-3585,-4293,6174,69430,-654
5531,1870,3939,7622,4713,3077,-14430,71095,-616
5580,-916,9709,6280,2857,6978,-6696,81445,-579
5580,179,44682,-16287,-14284,-13265,29316,176141,-545
5580,-139,27581,-4299,-5394,-7068,13333,62783,-513
5580,-836,23498,-1456,-4587,-7617,10308,50948,-482
5580,-382,-22764,23297,19128,24975,-40401,-109435,-454
5580,9,-14515,20880,15182,23166,-30899,-78300,-427
5580,960,-14661,20759,15668,22259,-31015,-77504,-402
5580,2078,37760,-14337,-8582,-7366,18832,26776,-378
5580,779,32789,-12222,-7341,-5909,16617,20888,-356
5580,730,28540,-9673,-7578,-11633,15459,2824,-335
5629,-1517,-30154,26081,21716,24548,-47089,-162974,-315
5629,-206,-10526,13557,11815,9779,-27451,-101245,-296
5629,-3039,11729,-6918,-4979,-15214,-1368,-22476,-279
5629,-1306,61843,-37393,-30150,-41243,51898,125075,-262
5629,435,71125,-38633,-31013,-37583,59695,143175,-247
5629,-30,30896,-7554,-6259,-2351,15891,-14564,-232
5629,-181,25625,-4634,-3655,362,10613,-25196,-218
5629,405,-15817,19168,14585,15808,-30442,-135243,-205
5629,-113,-12375,16781,12438,12666,-26610,-120234,-193
5629,27,34008,-13839,-9113,-6440,20301,-6163,-182
5677,1362,14669,1840,3260,6473,-3477,-63013,-171
5677,2036,-23363,23751,21198,28192,-40843,-168177,-161
5677,-1364,30611,-16979,-7623,-6563,17454,-10398,-151
5677,-1530,27673,-14455,-6142,-5333,13379,-18471,-142
5677,3515,73080,-44019,-33566,-44088,63074,146111,-134
5677,334,57076,-30526,-22538,-21107,46091,90777,-126
5677,-1745,41933,-18901,-13309,-4683,30569,43711,-118
5677,981,20677,737,-3208,1004,8747,-36281,-111
5677,1800,20349,-6486,-2600,-662,6609,-38696,-105
5677,693,-25113,29161,20859,19043,-40483,-164678,-99
5725,2412,-15702,11079,13809,7255,-30347,-124093,-93
5725,1554,-10727,9575,10151,3714,-23212,-102525,-87
5725,-1934,24881,-3892,-5149,-3770,13235,-24298,-82
5725,-2160,20392,-2136,-1887,-1090,8006,-35825,-77
5725,2410,22732,-1955,-2911,-2485,10281,-34228,-73
5725,1959,19667,-1332,-1813,-2445,7720,-37693,-68
5725,1103,9250,4634,3058,1867,-2752,-63258,-64
5725,-464,53773,-32086,-28312,-41013,46860,104027,-60
5725,267,58425,-29891,-25693,-32876,48091,106107,-57
5725,-3104,13549,6401,-1563,-2985,5513,-43038,-53
5774,113,-2024,-1140,5981,8749,-12936,-93312,-50
5774,138,26017,-13824,-6911,-5132,15389,-1395,-47
5774,677,-13991,17699,12718,9832,-26827,-113859,-44
5774,721,-18031,21075,15632,12777,-31569,-122581,-42
5774,1667,22730,-6038,-5170,363,14191,-14030,-39
5774,1017,17657,-3304,-2984,-2359,9218,-23567,-37
5774,992,7742,4121,1601,190,-245,-47954,-35
5774,3247,21088,-7155,-1051,-784,7038,-30518,-33
5774,3079,15945,-3280,1286,1379,1770,-42428,-31
5774,457,21986,-6944,-5180,-8037,16695,3174,-29
5822,-5575,-25335,24440,20467,22159,-36486,-146315,-27
5822,-3635,-20336,16401,12399,11219,-27037,-120952,-25
5822,-788,19302,-3676,-4656,-408,10109,-18970,-24
5822,-192,16398,-2427,-2955,3347,7406,-23695,-22
5822,680,-16044,15985,12060,6641,-27700,-108218,-21
5822,652,-17404,17200,12604,7754,-28389,-108343,-20
5822,3288,31046,-12603,-9450,-10671,18740,4497,-19
5822,1605,27376,-8850,-6876,-7264,14821,-2585,-17
5822,2612,20037,-8898,-5004,-5661,11460,-17761,-16
5822,1683,20246,-11848,-4476,-5109,10306,-17417,-15
5880,-344,-23140,24168,20089,21956,-36249,-142098,-14
5880,-2004,45379,-22922,-19701,-26546,37469,68161,-14
5880,-1405,37553,-17553,-15709,-20820,30425,46650,-13
5880,966,16596,-2522,-3593,-3251,7689,-28945,-12
5880,-373,14920,-2479,-3636,-2123,7606,-27321,-11
5880,-2085,8294,834,-159,2452,1290,-42120,-11
5880,-564,-22649,18451,15332,12331,-32963,-129918,-10
5880,-683,-20711,15859,15056,11620,-32527,-124695,-9
5880,-1579,17881,-3912,-4763,-3321,11182,-20729,-9
5880,-1084,14300,-938,-2918,-988,7788,-27349,-8
5929,904,-54052,39350,33423,37236,-67265,-241726,-8
5929,23,-37449,23993,21758,19270,-47939,-179479,-7
5929,-822,-19669,10987,12684,7082,-29911,-120146,-7
5929,3000,50709,-30020,-21653,-27156,44652,77629,-6
5929,1828,39468,-20313,-16318,-20551,34446,49708,-6
5929,-3491,25324,-8803,-5728,-5791,15288,-13991,-6
5929,-2542,22395,-7746,-4928,-5124,13607,-15881,-5
5929,-1654,11944,-1764,327,857,2600,-42956,-5
5929,3589,-19481,20883,12364,7434,-27633,-118871,-5
5929,4000,-19965,19549,13155,7596,-28874,-119876,-4
5977,155,3560,4810,5349,4255,-7293,-73077,-4
5977,-1107,-30726,26009,21497,23339,-41376,-168947,-4
5977,-1672,6870,-967,-983,-4328,2148,-40513,-3
5977,2283,24498,-9550,-7887,-6393,18595,-8860,-3
5977,2558,20879,-6382,-6256,-5185,15537,-13924,-3
5977,-1395,58076,-32461,-26051,-32414,50436,100084,-3
5977,-3362,43809,-21521,-18744,-23289,36824,57222,-3
5977,-5097,27965,-11453,-10571,-12315,20922,11056,-2
5977,-23,21005,-6341,-5280,-6991,11810,-27478,-2
5977,-148,12078,373,-2383,-1977,4851,-43378,-2
6024,2630,-33995,25823,22251,10668,-47528,-179965,-2
6024,1914,-20489,17619,14174,-1727,-33281,-135263,-2
6024,1200,-9577,8375,9945,-4883,-23605,-102784,-2
6024,994,24291,-10181,-6310,-6340,17113,-10109,-2
6024,1432,20549,-7596,-6765,-5883,15272,-14321,-1
6024,-222,20367,-6653,-4528,-936,13291,-23213,-1
6024,-467,13880,-2121,-1439,2911,7088,-37103,-1
6024,-1708,-52794,29115,30938,21632,-66105,-214320,-1
6024,-2084,-11293,2288,1827,-6863,-15040,-74165,-1
6024,-1903,44127,-29439,-27110,-34670,43976,94590,-1
6072,-59,-15918,19255,16527,20773,-27435,-136137,-1
6072,24,-20276,19372,13486,18006,-27155,-136903,-1
6072,1026,-15157,15490,11100,8359,-22372,-114717,-1
6072,98,-13572,13445,10157,6238,-20485,-104228,-1
6072,-739,-16253,14918,11443,7772,-23032,-107438,-1
6072,811,33802,-14906,-13464,-10120,30962,25289,0
6072,408,29756,-15412,-11491,-8609,26469,15640,0
6072,-1569,25919,-5708,-9156,-7212,20527,-5339,0
6072,-2339,21052,-8445,-5914,-2915,14211,-19348,0
6072,-427,49703,-33568,-21529,-25669,41845,72578,0
6121,1718,26898,-13907,-11106,-13868,22715,10112,0
6121,521,29245,-14413,-9388,-10836,23162,18260,0
6121,-884,-26192,23196,22364,26275,-37864,-150198,0
6121,-1533,17954,-6000,-7120,-6444,13752,-21212,0
6121,-894,13652,-3557,-3181,993,8669,-31448,0
6121,265,-16879,14403,12480,8429,-28064,-122332,0
6121,1013,-13090,12128,10537,6575,-24108,-107946,0
6121,-3061,25973,-9830,-9824,-9140,23556,6422,0
6121,-3658,20276,-5492,-6619,-5493,17467,-6953,0
6121,5132,22446,-7907,-6889,-7842,15998,-17750,0
6169,-275,-42384,34509,29511,33831,-55758,-209424,0
6169,-683,-41914,31111,24902,25664,-51451,-192550,0
6169,4414,56553,-33289,-26043,-29913,51427,98146,0
6169,2346,45671,-24686,-20167,-20667,41862,68782,0
6169,1285,29698,-13491,-11774,-10111,26078,23940,0
6169,1854,18181,-7555,-6174,-5703,14146,-17580,0
6169,-337,13854,-4749,-3431,-5202,8994,-28207,0
6169,-1465,-27746,20984,16037,14011,-32145,-134183,0
6169,-1454,-23976,19744,13855,11618,-28431,-118176,0
6169,3516,23945,-7091,-4680,-8137,16020,-10306,0
6217,4635,11070,-3337,2143,3043,491,-48454,0
6217,2510,-31431,25459,21899,27569,-42816,-168745,0
6217,-1131,23201,-8480,-7027,-4549,16731,-7918,0
6217,-1153,18993,-4858,-6009,-5349,13494,-14298,0
6217,-1013,7843,2078,-2223,-4150,2734,-43159,0
6217,-1583,53219,-35937,-25878,-33857,49825,105106,0
6217,-741,38921,-24202,-17979,-22860,35747,60944,0
6217,-1582,15129,-8716,-4318,-6773,10147,-26843,0
6217,-930,13048,-5080,-3844,-7164,8597,-26872,0
6217,1595,-30473,21822,16993,13970,-36931,-152688,0
6265,-1561,-19059,15217,12325,7419,-28301,-112908,0
6265,-1360,-14335,11963,9109,5870,-21977,-94656,0
6265,805,22472,-12335,-6398,-6287,15617,-11999,0
6265,649,17665,-10024,-4449,-4742,11300,-21400,0
6265,-414,15959,-10860,-4506,-4780,11012,-24210,0
6265,-6,12826,-7372,-3625,-2642,9474,-25719,0
6265,-142,5083,-1728,-207,992,2450,-41744,0
6265,-2212,43179,-34883,-25788,-40974,41185,90396,0
6265,-1825,57255,-39482,-28695,-38869,53676,123986,0
6265,1418,13174,-4658,-2489,-15039,6910,-34420,0
6314,-2387,-12525,5671,6212,2887,-18094,-102147,0
6314,-2725,20730,-15697,-9322,-13706,16477,4130,0
6314,-471,-19266,16698,13685,6268,-28503,-115311,0
6314,158,-71928,52257,43910,42125,-87694,-274355,0
6314,1024,-85602,58502,46394,47304,-98189,-302727,0
6314,947,27153,-11635,-8894,-5627,23433,11913,0
6314,42,20594,-7369,-5375,-2035,16298,-3767,0
6314,2375,20386,-7130,-7604,-9744,17014,-6671,0
6314,2027,18358,-5977,-6922,-8554,15034,-9651,0
6314,992,24964,-6982,-9621,-1600,24860,17115,0
6363,47,-30119,24571,19016,23334,-36396,-152116,0
6363,-447,15356,-9453,-8159,-9666,14496,-5167,0
6363,996,18762,-4170,-6714,-6111,15677,-8903,0
6363,1732,15767,-2127,-5301,-5313,12978,-13369,0
6363,2756,5185,4270,340,2355,1672,-42261,0
6363,-879,-24465,16999,15923,14528,-32140,-118199,0
6363,-931,-73755,50178,43041,44868,-87069,-267591,0
6363,-1507,18686,-4096,-11537,-8532,24990,18284,0
6363,-266,17633,-2439,-10463,-3309,22761,14875,0
6363,-215,18936,-9182,-6233,-1130,17275,-1912,0
6411,-1723,-44658,33492,29008,31082,-56130,-197813,0
6411,-1016,-39715,27620,22663,20903,-47819,-170964,0
6411,544,40824,-27693,-16845,-22872,37223,59805,0
6411,372,34875,-22315,-14244,-17932,31931,46638,0
6411,-508,20775,-13098,-8298,-9638,20277,7127,0
6411,-1419,19740,-10878,-7551,-8052,18182,5052,0
6411,-1678,15183,-5255,-4905,-3910,12814,-6793,0
6411,-2233,-11270,12805,5593,1737,-15189,-71513,0
6411,-1569,-22671,23916,13273,12192,-29288,-107236,0
6411,3356,21485,-11797,-9578,-9187,19873,6292,0
6460,-2736,-2582,-5729,393,-6569,-5264,-61548,0
6460,-1296,28448,-23100,-14967,-23254,27774,38769,0
6460,1177,-5074,6866,7091,6744,-9144,-70300,0
6460,450,-45960,33461,28357,30067,-53556,-189228,0
6460,212,-39963,26601,21564,20966,-44405,-157804,0
6460,1289,35384,-21947,-16409,-15658,35971,56688,0
6460,438,28710,-18954,-13300,-16707,29408,41439,0
6460,721,22335,-12830,-8643,-3498,19695,9826,0
6460,-78,16759,-11010,-4656,-524,13018,-5252,0
6460,-224,-8668,9986,4992,-309,-12459,-61879,0
6509,-258,-12873,11914,7043,8569,-15646,-82889,0
6509,610,29674,-17520,-17177,-21193,31268,52771,0
6509,3067,18077,-7958,-8872,-9169,21069,14466,0
6509,1697,14913,-7256,-7073,-7515,17553,7599,0
6509,212,5462,-2194,-1454,-1620,6299,-21198,0
6509,-973,-44193,31658,26481,28632,-54045,-187187,0
6509,423,-26494,19184,15345,17870,-34699,-127201,0
6509,914,35068,-27796,-13680,-6366,32236,44873,0
6509,-74,24719,-18062,-7976,734,22093,19875,0
6509,-557,21397,-9908,-8168,-9327,18734,8598,0
6558,-1786,-37037,31147,25412,26503,-46710,-164584,0
6558,-1240,-40921,29354,23493,21281,-47935,-165789,0
6558,-631,68439,-46811,-37306,-48034,70715,176394,0
6558,-107,51660,-32452,-25669,-30844,51240,116497,0
6558,-413,31999,-17184,-14744,-16964,30456,54855,0
6558,3858,19682,-10943,-8887,-14510,18987,7895,0
6558,5041,13921,-5931,-5572,-9764,12411,-7590,0
6558,1857,-42534,29725,24655,26407,-50052,-177974,0
6558,1336,-25737,17090,15055,14890,-31465,-117956,0
6558,-990,20518,-9288,-9102,-11812,20041,12080,0
6607,-1832,-18514,25010,11163,17187,-22393,-102481,0
6607,-2000,22520,-6755,-11719,-9470,22957,29604,0
6607,258,20993,-9274,-7385,-14082,17035,4583,0
6607,-521,20841,-10760,-7262,-19694,16438,4437,0
6607,-1047,17084,-9363,-5356,-16495,12395,-4526,0
6607,1024,43607,-27802,-22256,-22714,43177,94190,0
6607,306,28075,-17185,-13611,-14073,26861,45443,0
6607,805,12589,-3920,-7482,-2979,14235,-5133,0
6607,1533,11092,-3788,-4950,-2301,11387,-9862,0
6607,481,-43490,32237,25555,26468,-51721,-179815,0
6654,-2259,-35687,25411,19963,17026,-42937,-142406,0
6654,-2081,-27087,18576,14737,10635,-32959,-111943,0
6654,1186,18895,-6744,-7034,-5694,17789,6670,0
6654,-335,15349,-4051,-4942,-3645,13916,288,0
6654,-2066,15154,-6914,-5827,-6775,13109,-6016,0
6654,-1879,13925,-6976,-5337,-6299,11622,-7447,0
6654,-1475,10246,-4018,-3272,-2395,7317,-16643,0
6654,-1073,51526,-39443,-26766,-35756,50741,123072,0
6654,-821,34141,-24045,-14402,-17524,30812,63247,0
6654,-2053,7627,-1876,-3300,-2177,9067,-14917,0
6703,79,14539,-11809,-7172,-10705,13664,3892,0
6703,959,5166,-1341,1084,3507,-52,-29418,0
6703,3775,-24172,20068,11797,10997,-31204,-110589,0
6703,1895,-22681,20711,12626,11302,-29450,-102415,0
6703,1188,-27720,25397,16569,13522,-34983,-115922,0
6703,-1504,15185,-10231,-5561,-10617,12557,-7676,0
6703,-1057,12049,-10368,-3219,-5632,8695,-15307,0
6703,-184,14210,-3003,-3443,-959,9653,-15814,0
6703,-299,8345,-1172,227,2351,2393,-31974,0
6703,-1405,-39134,24717,18635,13443,-47414,-141102,0
6752,-259,-10661,8580,10109,9165,-18989,-78671,0
6752,-1002,38567,-27157,-18536,-22996,38730,81308,0
6752,4676,17926,-6218,-5386,316,15673,1370,0
6752,3841,14779,-3165,-3815,1942,12382,-4664,0
6752,3372,5475,2990,1281,6474,2021,-31137,0
6752,-2107,-18812,13731,11538,8698,-25659,-92450,0
6752,-2362,-15633,11976,10364,6849,-22632,-82188,0
6752,742,24712,-13474,-8228,-6252,19897,14217,0
6752,1201,16957,-7907,-4102,-1736,12419,-3913,0
6752,-2262,13737,-1362,-3822,-4121,12430,-5711,0
6801,-2077,-47479,34746,30062,35404,-58146,-193721,0
6801,-1851,-28545,19199,17444,17349,-35325,-124022,0
6801,1677,27281,-16971,-12244,-11000,25487,30442,0
6801,-103,23033,-12727,-9874,-8578,21127,20496,0
6801,-1557,12101,-4596,-3331,-1842,8722,-10242,0
6801,-1894,14419,-8593,-4581,-4027,13213,-303,0
6801,-1299,9925,-2069,-1595,3222,7937,-12099,0
6801,1237,-15389,9681,10871,7187,-23895,-84341,0
6801,233,-14239,9676,10307,5945,-22580,-78072,0
6801,-2241,18954,-7638,-6966,-6456,17126,8572,0
6850,1974,-35992,33422,21895,26778,-42889,-150422,0
6850,1300,7835,3218,-5985,-8467,9372,-4793,0
6850,-443,-16495,18436,16934,20883,-26236,-104439,0
6850,-782,-39109,31026,25749,29680,-48268,-164012,0
6850,-2197,33376,-18921,-15230,-16055,31196,49464,0
6850,-324,28678,-15077,-12362,-9607,26784,40062,0
6850,251,17260,-8354,-6019,-3954,14916,10428,0
6850,-2432,17198,-9185,-7813,-7549,16892,11487,0
6850,-2158,13170,-5055,-5011,-1521,12162,859,0
6850,1955,-13237,6801,9095,3633,-20912,-73487,0
6899,-1376,8048,-3729,-3571,-10943,2259,-23015,0
6899,-800,35868,-22206,-17085,-27137,32298,65474,0
6899,422,17568,-9505,-6406,-10460,13064,-317,0
6899,-375,15309,-7692,-5089,-6553,10521,-4920,0
6899,-82,-32705,25508,22657,23754,-41803,-145007,0
6899,-380,-39912,21347,23408,21659,-48439,-161753,0
6899,146,-32752,15533,19037,14823,-41023,-134024,0
6899,-356,32611,-18770,-14741,-14513,30202,50052,0
6899,-1000,25401,-13626,-10203,-9595,21936,29700,0
6899,2121,19612,-8093,-7994,-5229,17865,14353,0
6947,-3841,-17880,22755,14381,13705,-27346,-102992,0
6947,-2704,-44530,38397,27463,28866,-56030,-180153,0
6947,1215,-38672,23975,20365,19056,-47849,-137544,0
6947,1275,8164,-9788,-8506,-15592,7488,12095,0
6947,-2769,26881,-14423,-12229,-10837,26992,36895,0
6947,-1229,21857,-12993,-8191,-5363,19649,19628,0
6947,279,13249,-7544,-3539,98,10139,-4357,0
6947,-1929,13055,-5983,-1325,884,7874,-11992,0
6947,-1210,-35973,27818,26523,28852,-47974,-158866,0
6947,761,27174,-14908,-11751,-13220,25394,35144,0
6996,2885,28117,-19628,-13390,-20786,25450,41983,0
6996,2575,28771,-18944,-10918,-17008,24180,42688,0
6996,42,23262,-12403,-8765,-9745,18677,13627,0
6996,1303,19570,-7798,-6532,-6151,15134,6778,0
6996,1875,13834,-11402,-11038,-23766,12539,25012,0
6996,2042,54233,-35757,-30138,-40188,56107,143805,0
6996,2224,38878,-22368,-17965,-21463,36308,83737,0
6996,-2307,13877,-4486,-4012,-4283,11303,-5093,0
6996,-941,7774,450,290,1009,3506,-22563,0
6996,1306,-8859,13471,8284,8708,-12974,-68629,0
7044,3665,-16533,14041,12868,10812,-31245,-100938,0
7044,3939,-12853,12854,11455,8635,-28767,-94082,0
7044,-464,16651,-10467,-8011,-1548,17798,14064,0
7044,-600,10866,-6652,-4602,-827,11679,-248,0
7044,-2029,12679,-5390,-4882,-2515,12699,-2626,0
7044,-1242,10381,-4051,-3695,-1429,9781,-7165,0
7044,2830,43948,-32580,-25808,-39153,46272,113067,0
7044,1040,39706,-25389,-18853,-26565,38591,89517,0
7044,-1391,26142,-14726,-10530,-13021,23965,44815,0
7044,-651,6491,885,71,2825,3886,-22481,0
7093,-2746,-9827,2441,2315,-506,-10284,-58861,0
7093,-2713,14165,-11576,-8098,-11950,13602,12241,0
7093,-312,-23972,16324,13804,9441,-30746,-103202,0
7093,277,-25902,17919,15111,11803,-33144,-107427,0
7093,-62,12723,-3754,-4862,-4822,12549,-2710,0
7093,-646,10781,-2056,-3257,-1990,10122,-5793,0
7093,-882,3479,3238,1347,3460,1635,-25327,0
7093,1982,4763,7242,-4715,-1042,7180,-17792,0
7093,1302,5334,-548,-2023,1334,4328,-22338,0
7093,-1302,24934,-17144,-13822,-15366,26844,49232,0
7142,1307,-28423,20767,16567,18210,-35003,-122335,0
7142,1204,14191,-9946,-8731,-11740,13870,15047,0
7142,-1169,1316,-408,-2511,-792,6398,-15607,0
7142,-2024,-343,1313,-1850,1625,5283,-16893,0
7142,-244,-28748,16975,12711,12343,-32528,-106300,0
7142,574,-28375,15065,12867,16366,-31310,-101348,0
7142,542,-37912,19432,19044,25046,-41966,-126454,0
7142,592,14111,-8613,-7468,-7471,16730,14071,0
7142,-493,9120,-5070,-4783,-4051,11671,2626,0
7142,1058,6324,-6017,-1886,-1955,9956,-4051,0
7191,1471,-56977,32169,26270,22014,-56470,-173998,0
7191,538,-37618,18924,15680,9079,-35096,-110830,0
7191,-2813,21425,-16815,-15210,-15347,30722,53268,0
7191,-1378,16620,-13598,-12386,-12470,25188,38776,0
7191,-775,4827,-6879,-4605,-7677,12246,1588,0
7191,-2007,3806,-5635,-3440,-4765,10762,-588,0
7191,-2243,-257,-2402,-841,-431,6243,-10767,0
7191,-1092,-30973,11219,10022,6676,-23944,-79366,0
7191,-877,-40615,18831,16658,14564,-35723,-107339,0
7191,830,3420,-6314,-7209,-7152,13242,1948,0
7239,477,-46130,25504,25332,25901,-41658,-131395,0
7239,1034,-23501,7062,8724,3586,-12910,-59270,0
7239,-3762,-1085,-9037,-8998,-10958,15198,11836,0
7239,-2940,-4935,-5210,-6148,-6813,9529,1054,0
7239,-1610,16439,-17510,-14332,-6693,33054,121765,0
7239,-1049,8701,-11597,-9554,-3005,24513,100684,0
7239,-888,-3358,-3769,-2665,2447,11458,68030,0
7239,-57,-3834,-5673,-3484,-1514,10080,93613,0
7239,-1714,-8453,-2105,617,164,3551,77435,0
7239,3297,-39356,13746,16194,7139,-29253,34705,0
7288,-3552,-32357,11663,3656,5488,-19427,48968,0
7288,-2923,4974,-13495,-15337,-17294,21669,141535,0
7288,-577,-3364,-6063,-4614,-7028,10747,119739,0
7288,-195,-4607,-4304,-1895,-2485,8262,110124,0
7288,-2717,-8881,-2098,-2736,-3195,5453,108931,0
7288,-2883,-9904,-1051,-2296,-278,3008,98167,0
7288,-2843,-28362,12108,9970,13508,-20005,46081,0
7288,1620,7622,-12855,-12593,-14846,24308,150068,0
7288,1383,-2138,-6200,-5778,-7418,11983,118975,0
7288,-2505,-5021,-3376,-1193,-5464,7817,115496,0
7337,-41,-63730,35133,32170,31524,-60741,-26337,0
7337,-1277,-57568,28761,25069,19722,-51796,-10003,0
7337,-787,-46087,16187,15526,4690,-37998,45598,0
7337,-998,3204,-20304,-14572,-26329,19784,157593,0
7337,-2570,4447,-11955,-7873,-8369,20019,141180,0
7337,-3285,1948,-9932,-7205,-7166,16970,129406,0
7337,-3098,-6911,-2958,-2877,-813,6663,103493,0
7337,-3457,-5053,-1530,-1549,4024,8207,116911,0
7337,-2695,-29167,16651,15470,21653,-23275,53580,0
7337,-1143,2827,-9898,-7311,-2631,18519,135041,0
7386,-1809,-24238,6987,8974,-1944,-12719,78553,0
7386,-2050,7443,-12664,-7631,-15365,21088,142302,0
7386,8,2132,-6076,-7634,-5953,13704,120722,0
7386,127,-1000,-3595,-6477,-4309,9419,106797,0
7386,509,-9212,1956,-1747,716,-306,82810,0
7386,-1132,20943,-18706,-11817,-18241,29293,151324,0
7386,-1801,10794,-10940,-5953,-10076,18008,121961,0
7386,1517,2522,-4421,-2650,-7895,9071,101268,0
7386,1464,2178,-4115,-541,-9246,8214,94959,0
7386,2454,-39198,23749,22779,23643,-41492,6628,0
7434,-3826,-38730,16377,13784,4762,-36893,22524,0
7434,-6014,-29158,11796,8729,6495,-25689,37414,0
7434,2434,15192,-11076,-9237,-10877,23831,112834,0
7434,3571,12592,-9850,-8508,-9864,19933,101687,0
7434,1054,2330,-4945,-2799,8506,10749,86066,0
7434,2596,1885,-4836,-1805,11110,10379,81832,0
7434,3062,-2197,-1500,1981,10208,4591,69038,0
7434,-2906,21166,-15984,-10390,-14560,28607,120355,0
7434,-1283,14738,-11399,-4117,-7061,20151,99579,0
7434,1794,2461,-3266,-3615,-3656,9137,73498,0
7483,-3176,-3,-7603,-5835,-11993,9401,79164,0
7483,-2755,3489,-7504,-3745,-8071,9923,78145,0
7483,-3176,-32597,17728,18405,8770,-32476,14190,0
7483,-3084,-28451,15919,15472,8956,-29329,16365,0
7483,-2080,7902,-6512,2771,-5347,14049,77409,0
7483,-3177,5380,-5527,4892,-3062,12495,71874,0
7483,-4158,113,-2570,7474,1757,6749,59687,0
7483,-6123,2153,-1691,-1827,2093,6901,57939,0
7483,-7016,-1595,1494,721,3562,715,45070,0
7483,1564,24597,-20310,-17243,-20372,32627,110803,0
7532,-2226,-18044,8172,727,4701,-14714,21254,0
7532,-3455,11957,-11075,-14061,-13131,17697,76245,0
7532,-1808,249,-13,-1908,2279,6776,51757,0
7532,-2884,-691,-705,-377,3459,4818,46585,0
7532,-3304,-8072,3220,5286,11021,-5012,28900,0
7532,-2560,-29097,15002,15561,13485,-30078,2693,0
7532,-1107,-26485,13851,14035,14021,-27807,3919,0
7532,-3735,6419,-9290,-4693,-5341,13747,53039,0
7532,-3918,332,-3814,-893,-2357,6162,42149,0
7532,-457,993,-5189,-2941,-1989,8607,49654,0
7581,1213,-59112,33869,35720,33541,-62657,-62178,286130
7581,2706,-44007,21877,23718,15774,-43549,-30061,317128
7581,-5422,16521,-13619,-12978,-9332,28449,79949,-35663
7581,-6273,12444,-10094,-9968,-8858,23047,68242,-33554
7581,-6328,2675,-3309,-4299,-4765,10698,45471,-31571
7581,291,5252,-5008,-5663,969,13074,48231,806258
7581,176,1933,-6548,-2657,2675,8381,39715,855590
7581,343,-18989,10247,11153,10511,-25549,395,2718054
7581,820,-16409,8841,8759,8613,-20775,5947,2567151
7581,-2591,5807,-5133,-4820,1036,14271,46805,2523624
7630,-3338,-42091,21298,24807,22475,-46525,-46332,3484975
7630,-124,-12824,-1111,1984,-4923,-7195,13737,3116216
7630,-5278,-9997,6952,6587,11057,-9649,4272,3413971
7630,-3772,-42374,28202,25074,28853,-48279,-56383,3814875
7630,-3371,-36256,20874,18928,17380,-39194,-39656,3704222
7630,-1315,21116,-17679,-14684,-12131,30924,64351,2973495
7630,-581,16970,-14085,-12350,-11442,26469,55673,2850327
7630,-1116,12428,-11478,-6972,-2537,20827,40626,3124113
7630,-1980,11188,-11558,-3891,-2523,17217,37017,2970619
7630,-4411,-15909,4755,4808,3738,-15323,1054,3712253
7679,-3315,-12165,6613,9850,10852,-10246,445,3482812
7679,-235,22194,-18359,-11092,-13692,30873,65396,2859743
7679,-1612,12161,-9288,-2283,-1926,15171,39330,2718862
7679,-2274,9253,-10120,-4190,3131,13619,26262,2899722
7679,-2436,7433,-7788,-3243,2873,11082,21113,2768818
7679,-1920,-40270,27882,24825,33165,-49058,-68951,3564770
7679,841,-28735,17659,16104,20871,-33066,-38001,3311519
7679,-52,14978,-13663,-12954,286,24414,38698,2671093
7679,395,10945,-12290,-10689,-2144,21418,34015,2532834
7679,-1769,2865,-5900,-3475,556,10548,17474,2474034
7727,-4392,-13158,8066,9581,14750,-12545,-14380,2735860
7727,-5393,-47285,31703,28954,36912,-53648,-76578,2996055
7727,-2920,-37103,19838,18085,21559,-42233,-42591,3083247
7727,-3294,-2080,-5457,-3980,-3448,2567,22640,2563886
7727,-5050,-31979,18962,20666,25096,-39638,-42070,2640898
7727,-8223,20385,-14972,-12761,-3911,29885,37820,1945445
7727,-5140,14178,-9902,-6699,3530,20407,24567,1885365
7727,-7225,13113,-11906,-1570,-3231,18673,19947,1864372
7727,-4827,-22734,14482,23771,25241,-28799,-48043,2077516
7727,-2277,19730,-15062,-10215,-5503,26125,32982,1667945
7776,1019,11343,-11006,-7456,-3779,17151,24821,1739346
7776,1952,23494,-17712,-12446,-10332,29061,43898,1481804
7776,-5080,13220,-9515,-8374,2193,21663,13264,1475211
7776,-3338,11335,-9615,-7853,3900,19799,12785,1394719
7776,-3176,6559,-7064,-4643,7312,13608,6316,1347477
7776,-5415,-1759,-4487,-2396,-5001,-3227,8771,1569543
7776,-3807,41535,-34835,-28623,-32178,50803,87754,1050304
7776,-3670,9334,-8938,-12986,-937,21702,18353,1154737
7776,-1311,7319,-6626,-6870,1582,15696,11867,1108071
7776,386,3103,-1786,2185,2555,2183,-8296,1128752
7823,-3794,-33073,23897,23052,25874,-43638,-64978,1470457
7823,-5033,-21123,14004,15209,13837,-28676,-41436,1311866
7823,-6945,24956,-11772,-12929,326,25787,21193,848452
7823,-5114,22403,-9703,-9878,2254,21158,15806,816031
7823,-1004,8761,-5847,-3787,-260,15368,17,844506
7823,-1951,8672,-3919,-1711,1688,13888,-477,798551
7823,-3883,5853,-1254,1134,5700,9031,-4827,772657
7823,-7753,28325,-23140,-12046,-18660,34098,44852,614903
7823,-5765,17616,-13347,-7407,-8357,20860,23010,634278
7823,-5013,4705,-5152,-1394,2831,7968,-3323,712804
7872,-392,-41322,26924,26949,33179,-50601,-86937,1018237
7872,-1158,-7985,732,3253,5563,-5954,-18019,784505
7872,2345,-24048,11525,16537,14233,-28289,-46681,877085
7872,2017,-19592,10440,16938,8499,-27927,-44603,824834
7872,1220,-20732,12964,18095,6578,-32044,-50189,807872
7872,-4331,15437,-15528,-10375,-2665,24359,15663,434917
7872,-4286,11370,-13220,-7987,-4949,19201,10534,430581
7872,1834,9137,-9737,-5961,-2135,16646,3652,453104
7872,1424,8152,-8946,-5342,-3913,14549,2109,431419
7872,-5401,28297,-22854,-18535,-18121,33903,41791,303624
7921,-5982,-17118,8134,10866,14431,-14405,-37071,592390
7921,-4890,15839,-15271,-8114,-2680,26616,26258,347841
7921,588,4471,-5816,-5512,3916,11050,-7140,375244
7921,-76,3359,-3059,-3081,4470,8439,-8912,357820
7921,-1458,-4522,3153,3219,7814,-2204,-23054,382860
7921,-396,-31615,18140,10825,19391,-28936,-58769,548066
7921,-1235,-29279,18247,7194,21281,-27134,-55100,513537
7921,-2886,10905,-12392,-6326,-5622,20416,3429,251822
7921,-5135,6687,-8430,-4561,2610,17129,-607,245212
7921,729,11361,-7479,-4237,-1345,12700,-1785,273197
7970,3035,-47405,27930,32572,41045,-59914,-110623,561037
7970,2884,-42420,22876,29320,34658,-52906,-94524,548538
7970,-3864,28708,-22131,-15366,-8629,37257,34047,96836
7970,-4156,23431,-18694,-12051,-4836,32101,25446,109605
7970,-4269,13763,-12192,-7008,-846,21423,8771,143311
7970,1528,5132,-9509,-609,-6674,11587,-8060,209764
7970,492,4745,-9491,1084,-5109,11648,-6540,200627
7970,-4137,-25182,11142,14652,15294,-29715,-62777,372066
7970,-3642,-23342,10570,14246,15788,-28260,-58347,349408
7970,-3335,9701,-11675,-8048,-5989,14225,-8663,186197
8019,-4818,-17083,7910,6740,13978,-12335,-44847,309422
8019,-6114,13164,-15144,-9719,-9895,22439,14143,153370
8019,-6202,2620,-6171,-3706,2020,11695,-16268,178138
8019,-6172,3527,-6534,-1318,3876,9412,-18268,170495
8019,-5459,-2561,-1961,4750,8826,-1032,-32573,188947
8019,-915,16348,-15191,-10222,-5390,28394,7715,88250
8019,-146,9923,-8483,-5790,3630,16788,-9357,115978
8019,-2946,-724,-6204,-1204,-5127,9996,-18797,156771
8019,-4748,-2953,-5016,-933,-6145,8015,-21590,152811
8019,-4090,-34027,12835,15891,24573,-28869,-72196,280008
8068,1848,-21535,18931,19053,22607,-29170,-79725,264794
8068,2396,12121,-7485,-2605,-6581,14112,-7740,144804
8068,6606,16007,-10739,-774,-6429,14193,-7086,110255
8068,-2958,6604,-10744,-7880,1611,13923,-21053,124930
8068,-2880,2709,-7492,-7428,5354,9450,-27615,127473
8068,-2728,-1536,-6074,-6303,-2146,6511,-39301,154397
8068,-3597,-7386,-2821,-1409,1271,-1875,-46850,164965
8068,-2028,12269,-12836,-12698,-5492,22545,-8819,91430
8068,-1538,8411,-10067,-7562,-2950,16577,-16879,100800
8068,-2135,-585,-4645,2284,2869,3832,-34380,126041
8117,-2506,-55417,28815,39006,26662,-65625,-156961,331618
8117,-3993,-36846,15297,28937,9928,-44219,-108809,274198
8117,-6475,-30244,11527,26306,6957,-38125,-92000,243587
8117,5890,1625,-9746,-8090,-11731,5139,-18216,148699
8117,5562,38576,-34723,-28746,-33018,51128,59648,14376
8117,935,4393,-6611,-725,4197,14450,-33205,108325
8117,806,5242,-8144,2998,4623,10913,-33762,105620
8117,1218,-16468,4036,6452,4688,-12936,-76464,163560
8117,135,-51265,30434,30986,29381,-61200,-156717,266681
8117,832,9767,-15600,-8151,-10356,17797,-36089,97515
8166,-3338,-33582,12639,16128,16608,-31378,-94208,207724
8166,-4532,3858,-13957,-7506,-10809,16103,-4711,95852
8166,896,3782,-10157,-7796,-5694,12830,-34985,99700
8166,4425,1603,-9409,-7531,-8055,10288,-36054,96684
8166,2226,-7406,-3566,-2836,-4325,-192,-50684,111471
8166,-16637,-6601,-15094,-12730,-25538,13242,-201,100460
8166,-14560,26509,-35013,-25785,-37355,48609,61569,854
8166,-2400,2966,-1183,-1727,-6402,8762,-40091,90897
8166,-6516,367,-146,-1191,-3445,7228,-37714,86811
8166,-2136,-34669,11359,17740,17404,-29617,-99633,157609
8214,826,-39657,13809,21299,20349,-40802,-101612,182335
8214,1148,-34690,9670,12968,13292,-32739,-88470,163293
8214,2540,-603,-10211,1181,3250,16952,-21454,71623
8214,-2065,-1596,-8468,759,3128,15320,-21203,72739
8214,1023,-10903,-8241,2433,-728,6569,-30890,86074
8214,2171,-11971,-6494,3193,1850,4702,-32791,84324
8214,149,-19055,-95,7263,7502,-5483,-49663,97456
8214,-7991,9767,-24265,-23982,-26303,36608,33457,16482
8214,-5810,1474,-13876,-12315,-21104,22822,5976,39937
8214,4221,-11173,-7179,-4827,-1330,5739,-35690,77553
8263,-1247,-31988,-849,-747,-2444,-4473,-42777,110953
8263,-2020,-12198,-9094,-8350,-7482,13753,-6935,59397
8263,-2468,-49457,15739,15779,17141,-37088,-89041,146741
8263,-7332,-45632,13486,13491,14309,-31962,-77540,131919
8263,-5537,-13743,-11562,-4820,-5080,12125,-15063,51927
8263,-1501,-14848,-7443,-2553,857,9092,-16959,53443
8263,79,-21509,137,3306,12460,-2254,-33781,67492
8263,1142,-14841,-635,-1218,5619,6404,-15444,59380
8263,2023,-15410,959,-1041,-95,4604,-13380,57356
8263,-8654,-11859,-10374,-6210,-4036,13221,1443,37775
8312,-546,-58584,14199,15522,16375,-35019,-85103,132495
8312,2025,-13927,-10680,-7088,-8401,10167,6588,49418
8312,1864,-19926,-5730,8213,4662,7720,-23243,55345
8312,1053,-21288,-4311,9366,3441,5977,-19938,54252
8312,116,-30284,1309,12957,5283,-4167,-33440,67485
8312,-4845,-61960,18902,14392,15774,-32547,-21984,109771
8312,-2398,-57571,19207,13345,16621,-30265,-17674,100837
8312,-1055,-15466,-12853,-12073,-6339,14371,61315,33684
8312,-1217,-20788,-7778,-8740,-3989,6717,40047,41638
8312,-5915,-24669,-6437,-5526,-5811,5525,-15882,44252
8361,11853,-76787,24031,23378,20195,-55160,-151332,149776
8361,11183,-58602,14592,14130,14509,-34660,-105826,110207
8361,-3571,-4766,-17382,-14084,-10860,24572,-42738,8794
8361,-3568,-8363,-14553,-10779,-8854,19134,-42210,11679
8361,-3079,-18775,-8020,-3622,-2546,4517,-63735,28354
8361,1094,-25136,-8046,-6406,-4143,9927,-84309,30564
8361,-303,-29296,-7059,-4162,-5911,4110,-89714,34990
8361,-3805,-67549,13672,12512,9059,-31321,-160665,88617
8361,-4439,-60765,10702,11194,11380,-27448,-147523,79071
8361,-2127,-29784,-11265,-10657,-6707,10372,-88778,24550
8409,-52,-82515,22489,21982,29261,-44219,-202735,108283
8409,1469,-53025,3491,6006,5333,-11882,-130316,69696
8409,-408,-23253,-10793,-10258,-6156,14447,-80354,16448
8409,-5297,-28828,-6756,-6848,-4693,10743,-83017,20232
8409,-5796,-51128,5951,4378,6228,-11632,-126185,50258
8409,-4190,-28722,-16098,-18443,-9712,17731,-73035,1703
8409,-4177,-32827,-13759,-17851,-8007,11323,-77824,6785
8409,-6736,-41637,-6810,-1101,81,7688,-100156,23521
8409,-6482,-39806,-6565,-1819,-538,6510,-97564,25892
8409,-110,-75093,6151,14413,9143,-35051,-190677,78340
8457,-5547,-69271,273,7340,-2084,-27539,-162115,74178
8457,-5955,-15906,-26307,-21808,-25440,26630,-35386,-16194
8457,2813,-40472,-10857,-5491,2010,7548,-109873,12844
8457,4979,-41699,-7364,-2426,4110,2515,-114223,19221
8457,6704,-32189,-8862,-1429,-2718,1419,-122378,17487
8457,7118,-31803,-7117,-476,1513,603,-118663,17867
8457,4831,-39280,-1268,838,4666,-7666,-135568,29446
8457,-7692,-24462,-19122,-16183,-14567,23468,-72434,-16929
8457,-9574,-28577,-12973,-12273,-7295,17974,-81558,-7682
8457,-6054,-43864,-5150,-4107,-1144,4822,-122637,17721
8506,-667,-73752,10689,8231,6791,-26814,-196494,71909
8506,-4308,-33136,-10040,-12154,-12327,13859,-91165,8042
8506,-591,-78582,6997,9276,3179,-34403,-203691,70764
8506,2952,-113637,31285,32264,29877,-77754,-298332,123483
8506,-223,-29481,-9493,-8313,-1988,12369,-113617,8941
8506,2900,-28896,-9152,-7484,-1959,10742,-110453,9937
8506,2548,-33310,-5837,-4042,1930,4485,-117582,17148
8506,1829,-34413,-8603,-3576,-3161,9313,-113471,14538
8506,2067,-33284,-7227,-4119,-1042,6818,-109724,15215
8506,336,-34904,-6844,520,-3118,9311,-104546,11572
8602,-851,-95037,28721,34588,30451,-61173,-228522,101866
8602,-1438,-78155,20190,26786,19937,-44843,-182321,81753
8602,2911,-11495,-13233,-15101,-8458,24256,-37114,-10020
8602,2725,-10415,-11201,-13009,-6116,18853,-40722,-3446
8602,2299,-19892,-16209,-10814,-11493,17409,-43268,-419
8602,-877,-26631,-11104,-7986,-9656,11245,-49726,6718
8602,-5385,-59377,4614,8391,-247,-27631,-134432,52880
8602,-5707,-65070,9885,11703,1398,-33225,-146598,61983
8602,-5401,-20597,-12900,-11503,-19543,14504,-30283,3417
8602,5253,-14509,-10191,-12307,-960,21374,-28175,-172
8651,-5045,-26340,-5514,-4098,-4103,4136,-60108,21161
8651,-5895,-13963,-11953,-6305,-7537,13928,-25948,-2613
8651,904,-76797,22370,17145,28175,-47733,-182222,91350
8651,-1746,-62161,14234,11611,16871,-33165,-137813,69422
8651,-6460,-8267,-18361,-13907,-8663,27061,-7832,-10986
8651,-3541,-11069,-14964,-11040,-5874,21155,-15468,-3955
8651,410,-12241,-11779,-5530,-2618,13522,-32383,8582
8651,665,-12516,-11146,-9144,-4621,12726,-31063,8608
8651,1837,-49517,2875,9465,-90,-27232,-99796,58286
8651,465,4436,-24872,-18054,-27512,29286,42283,-13156
8700,2023,-54756,13933,15538,19882,-29606,-92314,51301
8700,-4161,-13297,-8740,-4887,-1419,8620,25696,14206
8700,-46,-13027,-7302,-4536,-1195,6690,21969,14983
8700,749,-21202,-1462,87,3813,-4006,-3571,26366
8700,-4060,-66214,20287,16560,16822,-40016,-81895,80454
8700,-2111,-57892,14843,16529,11366,-33510,-57985,66428
8700,1975,-6430,-13501,-13496,-8679,24123,101606,-7423
8700,503,-8762,-11899,-10619,-5833,19425,90542,-4817
8700,-1927,-11981,-7922,-5631,1420,13071,81115,10651
8700,775,-12668,-6165,-4120,7387,10949,74928,10997
8749,-260,-79689,31599,23780,34561,-63942,-105827,99786
8749,-5203,-70130,23452,16004,20848,-48088,-74109,86549
8749,-1808,34252,-34716,-27997,-28461,55596,206422,-53100
8749,1712,23131,-25993,-20742,-17881,42672,167766,-35699
8749,-2455,-12713,-8232,3089,1171,14214,101219,10701
8749,-2781,-16913,-4631,4203,5896,6732,79549,16450
8749,6155,-58195,15977,11547,6789,-39367,-21226,75041
8749,3676,-48444,10363,9713,118,-33031,-4926,61450
8749,-2030,-10568,-11758,-13480,-7769,15997,117449,3528
8749,-3477,-10763,-10514,-12310,-6710,12935,109044,4233
8798,-4804,-25788,-2767,2205,-1679,-4709,62877,30873
8798,-4398,2600,-15255,-9647,-10528,22582,129669,-7970
8798,-5191,-9795,-8064,-9723,-3395,11008,99482,9472
8798,-4965,-12873,-7288,-7400,-1594,8277,90619,11688
8798,2681,15851,-24147,-16849,-17349,46442,187302,-33378
8798,171,4923,-15635,-11298,-9579,33105,154634,-19107
8798,-5525,-15935,-8516,-3235,-260,3643,88533,13298
8798,-3990,-18101,-7661,-1929,-2635,518,78352,15197
8798,-2201,-26927,-3433,2475,-1731,-9071,51532,24437
8798,12785,-50395,17410,17388,13867,-37561,-10037,61817
8845,10149,-53728,15672,11821,9628,-40327,-24676,62970
8845,-6911,-11927,-10852,-5009,-6424,11304,99079,11563
8845,-6221,-11179,-10735,-1736,-3451,9813,93102,11374
8845,-5219,-16264,-6925,3278,3079,2852,74058,15948
8845,936,-9671,-957,-1158,-2792,7162,95912,7762
8845,2906,-12584,2423,-2051,445,4426,82617,9949
8845,1499,-42067,66,2286,-6406,-23343,22752,42763
8845,-3064,11167,-27750,-22510,-28702,31260,153820,-23909
8845,-3719,-17433,-5948,-10846,-4666,5453,89504,7651
8845,-4628,-20471,-4463,-12823,-5990,4462,82493,7426
8894,-3457,-42218,11331,10796,11473,-25547,10523,46098
8894,3364,-39259,5981,8796,8570,-32493,5717,44221
8894,63,-34968,1702,7401,5980,-28235,10417,38272
8894,-2509,-54620,12654,21794,19202,-50212,-46206,59464
8894,3824,432,-9887,-4316,-4086,14006,102206,-3419
8894,2193,-1367,-7897,-2116,-2088,11880,94539,-1251
8894,6038,-2962,-4910,-8759,3444,244,76065,7342
8894,5139,-6499,-1955,-3998,4470,-1692,64135,11034
8894,1959,15934,-17811,-14030,-10212,28598,140356,-24977
8894,-497,9380,-14675,-10755,-5324,21581,119500,-15551
8943,-297,-4707,-10734,-6355,-7759,14516,98273,-1554
8943,-1904,-3957,-5371,-4518,-1357,5853,73845,10662
8943,505,-4705,-4249,-1857,-116,4675,70085,9609
8943,133,-11050,-794,2587,2741,-1765,52072,15570
8943,-6998,-49726,9335,15031,15800,-29448,-5532,43170
8943,-4992,-70425,23691,31168,31415,-60217,-79216,70380
8943,-1914,3353,-7068,-6059,-6545,10273,94704,-3844
8943,223,65,-9214,-3430,-4226,6140,81878,-985
8943,-1907,-7256,-7309,-2298,-3778,8163,71950,5743
8943,-1900,-6471,-2737,-1473,714,6903,68153,5634
8992,-1507,-61975,24103,30612,27923,-58804,-85651,71414
8992,-2711,-68397,22588,26565,23250,-60990,-96357,80582
8992,4083,10820,-13244,-14171,-8124,27855,116693,-19684
8992,3493,-260,-7736,-6107,-3641,15753,82812,-7082
8992,4723,8427,-9095,-6233,379,18163,79681,-4765
8992,4829,2520,-9521,-5719,-229,13019,66398,-1123
8992,-4812,-37797,5784,10724,4897,-24692,1276,32129
8992,-7276,-50553,12878,18179,11780,-40245,-38374,45058
8992,-5782,-37546,5196,7862,1086,-24568,-7891,32379
8992,1105,-1240,-3552,-10486,-4559,16206,82714,-11566
9041,-2490,-39063,12072,14008,8507,-27086,-19749,42490
9041,-1279,6459,-12322,-7231,-15321,18136,94898,-7654
9041,-1709,-59452,24356,22645,30360,-53579,-87170,66318
9041,-1966,-44381,14570,12074,15198,-36890,-48982,51774
9041,4768,12655,-13618,-14074,-4534,31630,119768,-27053
9041,6327,8657,-9822,-11768,-4821,24638,98873,-20319
9041,4622,4184,-11472,-9262,-6127,18719,86051,-10664
9041,6708,3478,-9034,-9334,-5263,17238,76314,-8744
9041,4691,-5046,-4053,-3868,-1395,7324,48330,935
9041,-5165,-46402,18601,20424,23089,-40326,-38067,42185
9090,246,4731,-16971,-13898,-27089,14655,79602,-9542
9090,2652,13543,-19654,-15339,-22858,24368,105525,-26701
9090,-2017,2535,-10209,-4566,-1934,16579,78522,-7544
9090,-2870,1215,-8616,-1618,-793,14104,72501,-6920
9090,-1353,-46259,7510,19824,12077,-38539,-50521,49386
9090,499,-41354,6627,16525,7223,-36983,-46076,42690
9090,-686,17532,-10417,-4194,-1089,21815,101607,-21356
9090,-257,14725,-9902,-4618,-3406,17689,89222,-18022
9090,1457,3453,-5450,-1868,-197,5130,55697,-5691
9090,-3352,-2147,-6680,-9556,-5191,12349,65915,-4954
9139,-4279,-72116,29042,30097,32504,-63235,-116632,74482
9139,-5429,-52096,17695,17181,15224,-43069,-66400,54171
9139,-1055,32822,-26456,-26055,-22876,50432,167038,-56559
9139,336,26700,-16495,-18225,-11241,38675,131034,-41727
9139,1616,11522,-9924,-8387,651,18605,78993,-12761
9139,2408,8483,-9309,-6632,419,15967,71001,-10645
9139,-7204,-51133,12523,18519,17153,-38148,-56845,48523
9139,-4606,-46138,11511,14754,12595,-34399,-45322,40092
9139,-2938,-51640,14740,17266,14999,-42373,-63234,45506
9139,426,6485,-9510,-11682,-4573,23844,85566,-16829
9237,-3812,6553,-23811,-21287,-24993,21131,87664,-17221
9237,-2874,30567,-32173,-28175,-29735,43351,140648,-47917
9237,-3905,-1850,-5485,-6800,45,13954,60988,-6244
9237,-2252,-5993,-7278,-4085,-1577,10087,48869,-3258
9237,-931,-2992,-2933,-1970,5027,6176,44266,-2924
9237,641,-1857,-4003,-4669,2046,5937,41893,-2890
9237,-1137,-6190,-1999,-1379,2659,261,27155,1681
9237,6603,14402,-8613,-6131,69,10595,60759,-9001
9237,-545,-3904,-5463,635,-3725,6996,46022,-3466
9237,1864,-3356,-4651,675,-4002,4853,40230,-1904
9286,-2418,-49289,19374,19650,22744,-41860,-82194,50300
9286,779,-81783,33741,36748,24941,-73732,-151447,81305
9286,248,-35392,9215,13974,6771,-26630,-31005,29657
9286,-1671,-74157,31288,37873,36346,-72821,-145736,68858
9286,-3719,12050,-16156,-12229,-7125,21266,76972,-20483
9286,-3647,8830,-15652,-9801,-4627,15692,61967,-14623
9286,-2950,12923,-5902,-8731,-269,18519,68273,-14993
9286,-2815,11706,-4615,-6127,2474,15759,60868,-12187
9286,-746,9839,-9545,-7264,-5473,14702,63713,-15237
9286,-951,6597,-7880,-5319,-3825,12659,55869,-12405
9335,1266,126,-4998,-803,-7043,1788,26517,10628
9335,2065,20430,-15763,-10602,-15214,23083,84631,-17719
9335,-1426,3259,-2232,-1494,9307,7818,45571,-4833
9335,-3635,2524,-1296,-2918,7041,6203,38641,-3280
9335,2943,-43121,10402,13100,-2594,-31513,-58090,33162
9335,-162,-77315,26920,38241,22542,-73984,-162632,71256
9335,-3601,8981,-10706,-9509,-13629,17822,65683,-15597
9335,-3362,7246,-8325,-8889,-11621,16423,60455,-14166
9335,-1256,828,-3695,-5804,-4658,9868,41537,-8041
9335,2519,5706,-6519,-8277,-517,13627,44361,-8981
9383,-531,-42339,20589,15533,19899,-36981,-69306,43588
9383,4568,16130,-11932,-16185,-8456,21330,75890,-22039
9383,5082,13509,-8604,-12333,-5658,18619,67563,-19146
9383,1562,8233,-4836,-5325,-731,12151,50971,-13014
9383,-2133,3970,-3854,-5976,28,11002,49198,-8814
9383,-2484,4051,-3315,-5482,-769,10733,45044,-6760
9383,-1338,-3148,-9476,-300,-13115,1132,28799,-2294
9383,-141,28648,-21759,-15159,-23134,32834,114219,-40061
9383,-10107,-3402,-8272,-3009,2747,3523,30922,1124
9383,-6957,-4702,-6887,239,4926,1803,26413,2006
9431,1741,-45697,26169,27008,24259,-47592,-96917,43619
9431,527,-35263,15626,14518,21478,-29449,-58792,28895
9431,569,-57994,26030,22954,25534,-51872,-120334,57351
9431,549,-47062,19657,16389,14005,-41132,-89517,46194
9431,-5841,19998,-16378,-14210,-10708,28653,80776,-26177
9431,-5589,15166,-12451,-14720,-11269,23763,70022,-21185
9431,3682,3630,124,-5144,1662,9846,50542,-11477
9431,3501,-4476,3016,-659,4764,3283,33220,-6075
9431,1829,-34446,6927,14265,1943,-30566,-46452,26236
9431,473,-40426,10805,17137,6279,-36070,-65238,34461
9480,126,19518,-18162,-10920,-21087,30886,99156,-28511
9480,-8778,4749,-6245,-5154,-1929,15965,52622,-13569
9480,-6086,4807,-6343,-5051,2373,13933,48868,-11615
9480,-1085,-926,-1839,-1464,8456,6020,29956,-5333
9480,-1367,-52187,23115,13118,19367,-49864,-114357,53955
9480,1721,-36049,10078,7986,9565,-34614,-70930,37157
9480,6293,21716,-13688,-9708,-9353,22967,73778,-22279
9480,3237,11467,-9281,-8988,-8693,17199,54802,-15633
9480,884,10911,-11814,-3929,-1844,11239,46694,-8713
9480,1260,10027,-8913,-3237,-1630,9106,40852,-7543
9528,-1043,-15350,7482,12093,10845,-13483,-17698,11029
9528,4937,-18756,3731,6257,2082,-22601,-25572,14094
9528,-557,-56810,22523,21691,17471,-60344,-128367,53228
9528,-4626,-24764,2653,948,-5616,-20657,-32875,20366
9528,-5335,13809,-16554,-11171,-8573,22426,60141,-20301
9528,-3317,9429,-13744,-8434,-4880,18612,50069,-16546
9528,4206,-38814,20414,18240,20765,-41501,-93361,40669
9528,2796,-36643,18848,15925,14958,-39933,-91578,44501
9528,-3075,23414,-14029,-10039,-15465,26852,86249,-25131
9528,-2295,18513,-10801,-9533,-12016,24670,78141,-21846
9577,-4097,-40295,16229,19291,24348,-39877,-80298,36078
9577,-1964,16409,-10225,-8939,-4659,20132,65145,-18253
9577,798,15095,-9637,-3026,-1878,15145,54791,-14849
9577,680,5861,-4813,3947,3058,2657,21231,-3703
9577,-2612,52234,-34577,-30442,-36440,57250,165953,-64295
9577,-1288,38044,-24420,-19953,-24319,41141,118848,-46510
9577,1419,12148,-7107,-13556,-5947,18183,39517,-8662
9577,6093,4806,-4728,-12462,-4901,11130,26163,-3243
9577,168,-57616,25023,31840,25412,-59426,-130990,55787
9577,-688,-43278,16502,21285,14430,-42414,-90277,42951
9625,-580,-26009,8358,5262,7898,-25051,-47727,19611
9625,-4458,13199,-9855,-4622,164,16364,59205,-15555
9625,-1739,8988,-6218,-2691,1216,12391,48174,-11828
9625,624,-2068,-202,1773,4992,2721,20919,-1719
9625,964,8933,-7801,-5351,-4628,14378,48294,-13080
9625,1311,3414,-3791,-2873,2106,7749,32479,-7708
9625,3921,-7578,-10383,-13536,-22380,5722,27988,-2121
9625,3680,51162,-38038,-35911,-42736,65371,187860,-67864
9625,-6328,2863,-8253,-4369,-5562,8405,35322,-6048
9625,-5803,-892,-4184,-623,-1481,2518,21563,-1443
9674,439,-36770,17659,17309,22736,-37958,-81337,38533
9674,-951,-28937,10038,14159,7636,-26021,-43283,19746
9674,-2432,-24972,8328,12359,2079,-22686,-37467,17752
9674,-4350,-33615,13236,18688,6760,-33909,-66684,27320
9674,3188,19882,-20038,-10562,-3554,23077,69680,-20778
9674,1217,16571,-17800,-7694,105,19793,62728,-17108
9674,4054,10339,-7073,-5197,-1203,12116,47780,-15756
9674,4598,12775,-5283,1430,1324,6782,36091,-11308
9674,-5682,22803,-14551,-14565,-16554,28767,84033,-26986
9674,-6248,16557,-11831,-10414,-12238,24240,69649,-22272
9723,-4066,-7037,-6147,-8100,-10193,4143,23648,1897
9723,-5025,93,-4092,-6688,52,5075,30761,-5783
9723,-5915,-2204,-2690,-4947,-544,3903,27025,-5312
9723,-6819,-10805,3459,2584,4866,-5504,3584,2794
9723,-1372,-28426,11013,10841,1867,-26211,-50660,23631
9723,-1819,-44770,19561,22761,10670,-46288,-97353,38295
9723,2259,8887,-5106,-7029,-416,19504,55834,-14243
9723,-1161,7978,-4034,-6458,1730,18797,49849,-12766
9723,-3813,3365,-5207,-10262,-3574,9689,33467,-7562
9723,-2234,1359,-4576,-3986,33,7311,26777,-5553
9771,-829,-48305,22887,23181,24803,-46331,-122297,48317
9771,-239,13528,-10702,-10457,-9498,27628,71454,-23849
9771,775,9715,-7636,-8218,-7029,22049,61005,-19337
9771,279,841,-2289,-2928,-2187,8312,28561,-6983
9771,6881,3759,-939,-2553,-101,3843,27393,-8090
9771,4692,298,842,-2133,2815,822,19024,-1398
9771,1753,-32671,7783,10252,7792,-26839,-53739,24244
9771,621,-27251,6716,9203,4538,-26180,-49316,22109
9771,-5191,9668,-7843,-7598,-3026,14447,47929,-14471
9771,-2819,6481,-6575,-6546,-5398,11412,40970,-13030
9820,561,-14952,-2068,11565,5367,-14950,-27495,17232
9820,2611,11181,-7210,-833,5906,8390,35356,-7352
9820,1344,317,544,2498,9252,-2074,6918,2855
9820,1568,-54279,32103,29459,35769,-59765,-142904,56540
9820,2670,27976,-17655,-9874,-9763,25663,89313,-28089
9820,1129,21366,-13857,-6829,-8102,19894,70692,-21290
9820,1688,13387,-9182,-6887,-6843,12462,42275,-11583
9820,-803,6342,-4490,-1671,-1995,5336,25679,-5747
9820,382,-28860,6405,2875,5151,-27767,-62507,24953
9820,1376,-24909,4751,573,2891,-22983,-45916,19293
9869,-5072,-39653,20127,21043,19669,-35947,-78315,32988
9869,-2426,14870,-10263,-7384,-4780,16500,49434,-16331
9869,-587,10493,-7111,-7970,-2501,14006,45888,-15482
9869,-2481,-2337,-1342,-1921,1866,2377,19738,-5429
9869,-5231,-12624,4990,10680,5809,-12843,-12383,9264
9869,-3402,-57662,27873,33524,28941,-60721,-137618,54570
9869,1822,20410,-16483,-14664,-13253,30922,87796,-31053
9869,3068,18578,-14948,-10057,-10580,26739,76092,-25887
9869,-3155,8652,-6503,-3301,1498,11187,46395,-12531
9869,-3844,7536,-9803,-3464,1680,8441,37370,-9078
9918,5985,-56341,20837,25754,18735,-54412,-130457,53823
9918,2805,-35073,9284,14335,3779,-31328,-68454,31889
9918,-5551,58575,-38820,-47133,-39583,71527,198505,-70312
9918,-6612,43726,-26323,-29495,-22287,51277,148328,-56124
9918,-4242,11147,-8586,-5237,-637,12434,46788,-13833
9918,-3772,5216,-5454,-3370,1002,5866,26270,-6666
9918,41,-24525,17129,10350,11227,-15800,-38315,19285
9918,436,-59490,31522,26576,25662,-50869,-137508,55875
9918,-1578,12611,-8220,-1745,424,16132,54755,-15138
9918,-2064,9529,-8047,-2560,2506,14999,50186,-14330
9966,34,-28582,13112,18715,20570,-28804,-65559,23747
9966,10985,17352,-12305,-10150,-2365,16068,45079,-13485
9966,11467,15924,-12989,-10141,-5431,15288,41751,-14235
9966,11520,9480,-10380,-7107,-6729,9748,27479,-10866
9966,-3259,-75591,29676,34518,21872,-70031,-161902,60328
9966,-1416,3924,-14255,-10797,-20546,17315,59373,-14773
9966,-1114,17596,-6780,-8615,-16181,21762,55865,-14786
9966,-2576,13665,-4887,-6898,-10430,17314,45758,-11371
9966,-2423,4742,-3315,-1041,14873,8050,28555,-7127
9966,425,1291,1233,4273,16014,338,13287,-1041
10023,-3044,-55345,18575,27477,15011,-55298,-117742,48409
10023,-1458,16933,-14641,-8547,-10625,24304,69915,-21142
10023,-259,14030,-12809,-7220,-8793,20497,58167,-17500
10023,-14029,3326,-1858,2241,614,10453,36373,-7425
10023,-9182,5083,-2281,-2383,-1283,10129,33783,-7836
10023,-4264,1664,448,-1283,3174,2953,16625,-3564
10023,5862,13722,-11153,-14655,-17484,24071,45437,-10636
10023,1938,33159,-19790,-21900,-23284,42191,104668,-34932
10023,-638,3083,67,-2067,4693,7174,24852,-8948
10023,-1698,-501,2573,829,7246,2029,12837,-3178
10071,3047,-56467,20230,34914,33103,-58207,-142684,50237
10071,789,-65741,23180,33903,32969,-61613,-156242,59003
10071,1191,-52903,17716,26340,23610,-48645,-118179,45441
10071,-757,21194,-16453,-9710,-15443,27357,70272,-21325
10071,-3588,16199,-13836,-8021,-9663,23120,52876,-16751
10071,2757,11199,-11446,-14296,-10009,19317,50509,-13900
10071,2806,9585,-10829,-14931,-12660,18779,45474,-12793
10071,2041,3541,-5746,-8462,-6038,10055,22074,-5490
10071,-3126,-20424,4866,6258,165,-21622,-45320,17439
10071,1025,-55019,23889,26888,20733,-58990,-138046,46052
10120,2559,-2611,514,3083,3130,3003,-9690,7856
10120,1625,10346,-7185,-2616,-1124,11268,21187,-13028
10120,1429,-34729,17778,18622,21033,-38340,-108011,34477
10120,-5200,-45392,32215,26834,32259,-48228,-112747,42583
10120,-5032,-42214,29259,20851,22602,-42014,-100291,41897
10120,4437,30779,-14315,-17170,-16019,37491,94451,-33491
10120,3507,28446,-13756,-16313,-17307,35634,90166,-31061
10120,569,19979,-9298,-13364,-15245,26878,69227,-22163
10120,-3298,21828,-10734,-14036,-11992,22085,59205,-17129
10120,-4538,17914,-7989,-11932,-8343,18118,49725,-13605
10169,-5158,-34947,9086,13143,11580,-30987,-82697,31670
10169,-4244,13309,-17478,-11104,-18078,18838,45335,-11411
10169,-2034,22435,-18411,-9751,-15316,22634,60061,-20484
10169,-97,19361,-17895,-5125,-6655,25903,66863,-18176
10169,2499,11202,-9676,-3172,-4005,18293,49934,-12157
10169,-4074,-52897,27983,31337,32742,-56707,-140802,51118
10169,-3740,-38724,17909,16997,17380,-38329,-95542,38969
10169,-3155,-37734,16944,13644,12817,-37098,-90437,35769
10169,8773,28476,-16034,-10119,-6414,28325,76919,-25930
10169,2815,14652,-11125,-4727,431,19233,51419,-16775
10218,991,-51780,19858,21532,20261,-50404,-128330,47679
10218,1186,-30672,7906,9354,5574,-27029,-64188,25957
10218,414,-25296,5910,8215,4674,-22027,-49032,17901
10218,-389,-26455,3192,10727,2387,-16850,-58174,21252
10218,221,54935,-39765,-30617,-37403,70889,169687,-56387
10218,2589,31263,-4757,-15759,16905,32220,92023,-20703
10218,3242,32879,-1923,-15145,6279,30192,87238,-20436
10218,4366,27520,610,-15106,-4551,23629,68144,-16282
10218,-4547,-43859,19648,30183,23555,-54827,-125368,43468
10218,-7199,-31777,10921,17656,10131,-35677,-73982,28473
10266,-9086,-28959,8612,14379,20600,-21066,-47091,17899
10266,-5511,-26570,3921,7263,7824,-15225,-45829,21018
10266,-3630,9643,-16547,-11472,-11074,21346,54034,-13794
10266,753,18434,-11996,-11379,-7284,25833,77220,-22517
10266,-1976,15774,-10673,-9334,-7159,22413,68279,-18427
10266,2952,22350,-19653,-20145,-25098,36438,99963,-27138
10266,3079,58096,-32223,-31871,-29806,69548,195104,-65125
10266,2502,39765,-19378,-19858,-14173,47489,130158,-45291
10266,4844,13394,-2213,-12759,-4424,25344,52897,-14429
10266,6463,10617,-1616,-7205,-3154,22613,49866,-12446
10313,-12039,-54526,24317,29693,27823,-53796,-130166,48958
10313,-8112,-35789,13520,23210,18774,-35838,-79385,30471
10313,-3885,-33795,12691,25008,15769,-36190,-79007,28427
10313,-2551,22303,-13517,-10904,-10862,27868,75350,-19929
10313,-1080,13959,-8525,-7507,-3371,18741,49950,-12114
10313,-240,7400,-9707,-9173,-1271,20190,53045,-11244
10313,-2078,8448,-8918,-9695,-1984,19108,45843,-9907
10313,-6,33867,-20780,-18160,-16600,37611,113586,-33519
10313,-1887,24627,-14614,-8722,-6488,27538,85013,-25393
10313,-3113,12425,-7693,-26,2192,15896,51158,-14056
10361,3190,-47230,24057,19732,21479,-48895,-137278,46651
10361,974,-19163,7569,-532,3409,-12833,-37381,18689
10361,-1982,-51128,19771,22100,18657,-46554,-136228,48267
10361,-2485,-36192,12995,14657,9217,-33826,-91107,32413
10361,-424,-38543,14494,18776,10671,-40431,-105520,33603
10361,-7928,19637,-14207,-11589,-510,25597,65222,-16975
10361,-3855,14615,-11211,-8215,-786,20282,46911,-12058
10361,1478,12976,-11008,-7152,-4488,17439,44523,-10210
10361,-2108,9648,-9383,-6894,-8351,16165,39808,-9546
10361,-711,-59152,31320,27765,27832,-60247,-170085,50021
10410,5647,3912,248,4003,-7835,3599,1787,-86
10410,5346,36122,-15989,-10600,-20964,36715,102427,-31272
10410,4911,12082,-3479,4252,-5018,8912,27401,-11330
10410,6837,16033,-10636,-1775,-4096,18250,49529,-13224
10410,6401,8345,-4715,2038,1805,6262,16453,-3308
10410,-1432,-32682,7432,14801,12943,-31183,-102404,32004
10410,-694,-29581,2883,8914,9464,-26612,-88083,26216
10410,-4076,17699,-11521,-12054,-7550,25861,68893,-20436
10410,-5162,11264,-7311,-8727,-3375,18616,47921,-14883
10410,-2895,7898,-7059,-9969,-11352,15770,38178,-8346
10459,7908,-52182,29166,26760,26348,-52447,-166062,48811
10459,6109,-40165,20739,20489,18848,-41510,-133929,41120
10459,-2569,43920,-33346,-30392,-22872,50058,134574,-45383
10459,-1147,35803,-28230,-23400,-20943,40381,106793,-35024
10459,2807,15099,-8889,-8675,-6684,20682,35501,-12135
10459,-414,12216,-7166,-5527,-5686,16832,24934,-9015
10459,-1516,2707,-3281,1125,-697,5193,-3086,54
10459,-2227,-36578,18907,11436,1972,-30561,-97786,28421
10459,-1423,-35064,16495,11938,1597,-30221,-93873,26455
10459,881,17858,-4392,-9093,662,21667,52055,-16019
10508,-914,-9711,-998,-220,-2011,-4535,-27773,9414
10508,-620,19573,-14622,-13479,-16294,25038,67109,-20127
10508,1576,17578,-2760,-3915,1508,12605,31909,-10501
10508,5581,17184,-707,-2918,7338,12554,31771,-10554
10508,-5597,22372,-16365,-25368,-17759,32290,85054,-28529
10508,-3900,16045,-13667,-19931,-15226,25622,63286,-21546
10508,-4184,3362,-7992,-9217,-9313,11343,20715,-8604
10508,-2389,11233,-3293,3372,-1187,5775,5140,1533
10508,-2917,8860,-3950,4005,-980,3752,-1358,2403
10508,328,-35944,11798,15029,8331,-32455,-109760,28880
10556,-821,-12118,1700,-2928,584,2522,-27613,6069
10556,1509,28802,-18824,-21093,-17284,42786,102789,-32015
10556,3025,4074,-4974,-8175,4423,10522,23045,-8218
10556,1174,4555,-3122,-5479,6257,8826,17298,-6337
10556,-8573,1217,-11765,808,-7085,2376,5532,-1469
10556,-12918,-2906,-5648,2953,-12,1028,6231,-1654
10556,-13833,-10048,638,6740,6272,-5417,-10156,2113
10556,835,19214,-17627,-15207,-11548,29062,78831,-29870
10556,-906,5424,-7498,-6673,-3773,12431,28289,-13970
10556,-5364,1207,-7914,-3838,-7145,12154,19892,-6698
10605,1117,5887,-2406,-6138,-1843,8071,12638,-4960
10605,1597,4944,730,-1035,2378,3668,7775,-6645
10605,3282,-85103,40748,49525,37534,-91877,-285355,71807
10605,981,-73826,33023,40202,28542,-78288,-241581,62341
10605,288,13709,-7098,-7674,6529,16835,43001,-12778
10605,666,12110,-4319,-5485,4715,13232,29396,-8849
10605,1457,4569,1959,-86,3755,2676,-7459,803
10605,-546,5466,-6915,-3808,-576,12306,27451,-8869
10605,-4914,-462,-2936,-1775,3526,6101,14832,-5095
10605,1266,10336,-5322,-3247,-3034,12384,32028,-11801
10654,-8108,-44933,23978,21798,18501,-42537,-144576,38450
10654,-5204,-12131,4294,-3301,-4071,-3713,-33584,11467
10654,3808,12848,-153,-7144,7578,13345,31902,-26060
10654,6937,11815,451,-5381,6181,10767,24418,-23736
10654,6847,3397,4064,-133,4479,1056,-6250,-13619
10654,3845,-73380,30840,31107,22096,-70893,-242188,67409
10654,1820,-25768,4504,5656,-2047,-19779,-77396,22575
10654,-2040,15241,-9412,-9998,-9951,20567,48988,-15575
10654,-1792,8792,-5766,-4443,-5404,12816,26935,-9668
10654,-3933,10664,-6585,-3360,-5862,12495,36898,-15237
10702,-1700,-44413,23744,24405,24698,-45633,-143412,20748
10702,1517,-52833,23722,24412,22340,-52082,-171072,33462
10702,4747,25322,-13400,-14861,-14634,32770,85683,-32798
10702,3034,19849,-7875,-11496,-12652,25751,64900,-28441
10702,158,14261,-11029,-10507,-11386,19508,48258,-13267
10702,148,11266,-9390,-8162,-9011,17090,40831,-11788
10702,-2554,2489,-4136,-2722,-3217,7270,11693,-4292
10702,-3513,-65487,32203,35139,37645,-70139,-213003,53334
10702,-1652,-68992,30417,32358,27348,-71241,-223746,61227
10702,-2784,22640,-16155,-9887,-9309,25925,57667,-18376
10751,-2368,-22025,7926,9619,4562,-22040,-96005,15981
10751,-2072,21282,-15203,-13493,-15189,24787,46790,-28919
10751,3426,-28686,10142,13733,8849,-27919,-136228,-10050
10751,5934,-23646,6925,11332,7225,-23130,-119399,-13171
10751,-3566,30459,-15218,-18599,-9546,35806,21547,-33704
10751,-248,26552,-13151,-19342,-9384,31108,11793,-33213
10751,1507,15786,-7878,-13181,-4704,18849,-19392,-24613
10751,-3824,20227,-8894,-7030,-4661,18739,-32767,-28823
10751,-4738,17199,-7392,-5277,-3221,16275,-35372,-26945
10751,-4742,1484,-3223,-259,-2314,-3215,-79221,-38480
10800,15,18111,-13410,-9958,-11124,15288,205304,-58723
10800,2112,34682,-18737,-15019,-17514,27347,261052,-77117
10800,-289,31660,-7266,-4817,-8102,4010,485659,-83554
10800,1518,30465,-5904,-4323,-4832,3490,461632,-81764
10800,4312,24026,-1711,-613,902,-2617,424539,-72197
10800,-5490,7380,11598,19303,10837,-37119,321694,-38409
10800,-4184,2737,13971,18046,12865,-41793,288909,-28646
10800,-2813,82596,-10588,-6803,-3713,18911,378642,-112383
10800,-868,73664,-7624,-2450,-549,12892,347019,-101133
10800,-5799,87429,-4132,-5509,-3217,12201,307162,-100632
10848,1441,40542,19281,27277,20678,-49812,163889,-16219
10848,1648,27486,23355,26497,19277,-56504,133275,7514
10848,286,46743,21843,21029,17004,-50550,139731,-23941
10848,4052,80855,-1717,-4795,-11710,-3039,216233,-81872
10848,1728,123079,-12087,-10698,-7001,27070,225317,-159649
10848,3428,115105,-11550,-9785,-6467,25038,209707,-150095
10848,5671,104981,-9548,-7426,-4650,20281,189460,-135265
10848,-3371,79453,13649,14172,15586,-21666,84013,-80282
10848,-1739,54543,22571,23073,20915,-42479,35345,-22797
10848,-3377,125878,-12144,-15786,-2421,31423,141558,-204500
10896,-517,114675,-8549,-8205,-8140,23161,124738,-196676
10896,-1507,69444,14625,15245,14292,-25923,25872,-81809
10896,1076,119636,-12177,-8101,-7555,24347,94580,-210029
10896,-1364,108181,-8436,-4266,-3926,17210,79406,-180067
10896,-2685,66255,11743,11728,4305,-31561,-15437,-19232
10896,-2924,137241,-31103,-31321,-36312,56694,143334,-255726
10896,-2667,134290,-27084,-24695,-26475,53363,132575,-269780
10896,5417,109619,-11110,-6867,-12837,20901,34586,-156402
10896,4943,99789,-7199,-5411,-9524,16822,25504,-139851
10896,165,97664,-8432,278,4978,14671,332,-121050
10943,-4751,43308,16793,23058,17501,-38232,-88145,59018
10943,-1309,43998,15263,19881,13871,-32852,-75669,43332
10943,-451,106477,-10275,-11898,-8898,32359,9669,-156522
10943,1097,93204,-5039,-4843,-3024,19711,-10397,-117910
10943,254,100287,-5525,-5331,2985,25094,-17950,-126448
10943,1880,90875,-3911,-2630,1227,19450,-25163,-108129
10943,239,103937,-16940,-15306,-16935,38910,6181,-151164
10943,2170,104059,-17029,-13778,-13740,40584,11993,-180555
10943,2547,86461,-8327,-5089,-5165,24630,-16141,-131914
10943,2392,80066,-4607,-680,-904,15289,-52419,-83160
10992,-481,63620,-2149,110,-3686,4234,-73319,-18299
10992,-739,78888,-11685,-8401,-9691,23681,-32934,-105572
